1582293361.00
64.000000
-0.00
-0.00
-0.00
-0.00
-0.00
-0.00
-0.00
-0.00
-0.00
-0.00
0.00
0.01
0.01
-0.00
-0.03
-0.05
-0.05
0.00
0.13
0.36
0.66
1.01
1.37
1.72
2.06
2.40
2.79
3.24
3.80
4.42
5.06
5.66
6.20
6.68
7.15
7.68
8.31
9.14
10.09
11.04
11.88
12.56
13.14
13.76
14.65
15.96
17.91
20.32
22.90
25.38
27.58
29.57
31.68
34.32
37.81
42.54
48.15
54.10
59.83
64.97
69.58
74.14
79.34
85.71
93.76
103.00
112.62
121.73
129.77
136.75
143.30
150.75
157.77
166.64
177.95
191.79
206.97
220.57
228.25
225.36
208.53
176.87
132.76
80.05
23.07
-34.94
-92.44
-149.16
-205.23
-260.37
-313.74
-363.87
-409.83
-450.91
-486.50
-515.74
-537.23
-549.22
-549.96
-538.37
-514.21
-478.67
-433.88
-382.45
-327.02
-269.84
-212.63
-156.66
-102.95
-52.37
-5.90
35.58
71.43
101.35
125.50
144.38
158.69
169.15
176.37
180.75
182.57
182.07
179.51
175.23
169.65
163.18
156.15
148.81
141.30
133.69
126.02
118.33
110.69
103.16
95.80
88.68
81.83
75.25
68.95
62.95
57.25
51.86
46.78
42.03
37.59
33.45
29.61
26.07
22.81
19.83
17.11
14.67
12.48
10.54
8.83
7.35
6.07
4.97
4.05
3.27
2.62
2.09
1.65
1.30
1.01
0.79
0.61
0.47
0.37
0.29
0.23
0.20
0.17
0.16
0.16
0.17
0.19
0.22
0.25
0.29
0.33
0.37
0.41
0.46
0.51
0.55
0.60
0.66
0.72
0.78
0.84
0.91
0.99
1.08
1.17
1.28
1.40
1.53
1.69
1.86
2.04
2.25
2.49
2.75
3.03
3.34
3.69
4.07
4.48
4.92
5.41
5.93
6.49
7.09
7.74
8.42
9.15
9.93
10.76
11.62
12.54
13.50
14.52
15.60
16.75
17.95
19.22
20.50
21.78
22.98
24.01
24.76
25.11
24.94
24.13
22.62
20.38
17.43
13.82
9.70
5.24
0.65
-3.84
-8.01
-11.67
-14.70
-17.02
-18.61
-19.50
-19.77
-19.49
-18.75
-17.64
-16.25
-14.67
-13.00
-11.31
-9.64
-8.02
-6.45
-4.90
-3.32
-1.67
0.01
1.70
3.35
4.98
6.51
8.00
9.54
11.25
13.20
15.34
17.54
19.69
21.76
23.58
25.22
26.93
28.94
31.36
34.07
36.75
39.12
41.08
42.31
43.02
43.67
44.74
46.39
48.41
50.24
51.25
51.15
49.42
46.23
42.04
37.27
31.83
24.93
15.02
-0.29
-19.06
-41.39
-67.34
-96.41
-127.01
-156.24
-180.26
-195.42
-199.48
-192.47
-177.37
-158.18
-138.67
-121.23
-106.67
-94.79
-85.14
-77.66
-72.49
-70.03
-69.76
-70.20
-69.32
-65.38
-57.43
-45.65
-31.18
-15.58
-0.62
12.67
23.97
33.53
41.79
48.96
54.98
59.52
62.36
63.38
62.93
61.63
60.17
58.96
58.07
57.27
56.24
54.79
52.94
50.90
48.91
47.08
45.24
43.09
40.25
36.48
31.80
26.48
20.94
15.60
10.78
6.58
2.90
-0.46
-3.78
-7.34
-11.44
-16.37
-22.32
-29.18
-36.45
-43.19
-48.18
-50.26
-48.67
-43.31
-34.84
-24.39
-13.28
-2.63
6.85
14.89
21.50
26.84
31.06
34.28
36.57
38.05
38.86
39.20
39.17
38.79
38.03
36.86
35.43
34.03
33.03
32.71
33.04
33.69
34.06
33.60
31.96
29.12
25.36
21.08
16.62
12.17
7.75
3.32
-1.16
-5.62
-9.85
-13.66
-16.91
-19.75
-22.50
-25.69
-29.86
-35.34
-42.04
-49.44
-56.59
-62.31
-65.40
-64.94
-60.55
-52.52
-41.81
-29.75
-17.76
-6.88
2.36
9.92
16.10
21.25
25.60
29.24
32.18
34.42
35.99
36.92
37.27
37.02
36.31
35.30
34.34
33.75
33.79
34.49
35.62
36.73
37.31
36.93
35.34
32.53
28.73
24.34
19.77
15.40
11.43
7.87
4.56
1.31
-2.03
-5.45
-8.85
-12.07
-15.06
-17.93
-20.98
-24.54
-28.93
-34.30
-40.52
-47.18
-53.48
-58.37
-60.71
-59.62
-54.77
-46.55
-36.03
-24.59
-13.52
-3.68
4.57
11.33
16.86
21.42
25.17
28.19
30.51
32.13
33.00
33.09
32.50
31.43
30.26
29.37
29.02
29.27
29.90
30.60
31.05
31.05
30.46
29.24
27.40
25.01
22.20
19.12
15.90
12.60
9.23
5.72
2.06
-1.67
-5.39
-8.96
-12.33
-15.54
-18.73
-22.21
-26.32
-31.36
-37.40
-44.14
-50.76
-56.05
-58.67
-57.65
-52.69
-44.40
-34.01
-23.08
-12.93
-4.33
2.49
7.67
11.50
14.24
16.11
17.43
18.59
19.97
21.71
23.71
25.58
26.95
27.64
27.81
27.79
27.90
28.20
28.43
28.18
27.12
25.17
22.49
19.39
16.09
12.67
9.09
5.32
1.44
-2.31
-5.69
-8.54
-10.93
-13.07
-15.30
-17.91
-21.09
-24.92
-29.41
-34.57
-40.32
-46.33
-51.95
-56.17
-57.87
-56.20
-50.95
-42.64
-32.47
-21.81
-11.81
-3.10
4.26
10.48
15.84
20.43
24.17
26.95
28.78
29.79
30.26
30.43
30.41
30.23
29.82
29.18
28.43
27.81
27.60
27.91
28.60
29.25
29.23
28.04
25.45
21.72
17.44
13.34
9.95
7.37
5.32
3.31
0.85
-2.27
-5.99
-10.04
-14.10
-17.97
-21.56
-24.94
-28.26
-31.75
-35.67
-40.22
-45.45
-51.11
-56.50
-60.55
-62.12
-60.28
-54.74
-45.94
-34.92
-23.00
-11.39
-0.99
7.73
14.61
19.70
23.14
25.19
26.18
26.49
26.45
26.27
26.08
25.89
25.72
25.62
25.62
25.69
25.76
25.74
25.55
25.14
24.52
23.60
22.29
20.46
18.01
15.07
11.91
8.90
6.29
4.07
1.89
-0.72
-4.14
-8.35
-12.96
-17.32
-20.87
-23.40
-25.10
-26.47
-28.11
-30.46
-33.76
-37.99
-42.93
-48.07
-52.63
-55.59
-55.91
-52.83
-46.20
-36.63
-25.33
-13.72
-3.10
5.72
12.46
17.33
20.77
23.27
25.13
26.46
27.21
27.24
26.52
25.25
23.73
22.36
21.41
20.98
20.94
21.03
21.01
20.77
20.34
19.76
19.00
17.92
16.26
13.78
10.42
6.36
1.96
-2.31
-6.14
-9.36
-12.12
-14.70
-17.47
-20.74
-24.73
-29.52
-35.00
-40.83
-46.38
-50.75
-52.92
-52.05
-47.74
-40.31
-30.68
-20.16
-10.01
-1.13
6.10
11.72
15.99
19.13
21.24
22.30
22.31
21.37
19.77
17.88
16.07
14.64
13.77
13.51
13.75
14.37
15.16
15.96
16.60
16.97
17.02
16.70
16.01
14.88
13.24
10.91
7.67
3.32
-2.22
-8.79
-15.97
-23.08
-29.38
-34.34
-37.82
-40.21
-42.20
-44.51
-47.50
-50.96
-54.10
-55.85
-55.17
-51.43
-44.55
-34.96
-23.50
-11.22
0.88
11.93
21.40
29.07
34.96
39.22
41.99
43.41
43.65
43.01
41.93
40.82
39.93
39.23
38.45
37.34
35.79
33.94
32.06
30.37
28.93
27.60
26.15
24.36
22.08
19.18
15.52
10.97
5.48
-0.84
-7.67
-14.57
-21.09
-26.91
-31.96
-36.42
-40.63
-45.02
-49.98
-55.69
-62.01
-68.40
-73.98
-77.67
-78.50
-75.91
-69.88
-61.04
-50.40
-39.14
-28.25
-18.32
-9.51
-1.59
5.71
12.48
18.56
23.54
27.04
28.99
29.80
30.19
30.99
32.69
35.29
38.36
41.22
43.30
44.33
44.29
43.34
41.73
39.69
37.45
35.28
33.35
31.77
30.53
29.52
28.56
27.50
26.23
24.65
22.79
20.65
18.30
15.74
12.92
9.76
6.21
2.46
-1.10
-3.80
-4.97
-4.12
-1.22
3.31
8.70
14.12
18.86
22.48
24.78
25.79
25.64
24.52
22.67
20.34
17.77
15.20
12.83
10.84
9.35
8.44
8.14
8.41
9.19
10.35
11.69
12.95
13.74
13.69
12.54
10.25
7.07
3.42
-0.28
-3.71
-6.85
-9.84
-12.83
-15.94
-19.11
-22.24
-25.26
-28.21
-31.26
-34.60
-38.37
-42.49
-46.55
-49.85
-51.51
-50.71
-46.97
-40.36
-31.50
-21.37
-11.07
-1.52
6.66
13.23
18.27
21.95
24.54
26.27
27.33
27.91
28.16
28.20
28.14
28.02
27.89
27.73
27.60
27.55
27.64
27.85
28.05
27.97
27.29
25.83
23.61
20.85
17.84
14.79
11.71
8.45
4.85
0.85
-3.43
-7.72
-11.72
-15.26
-18.33
-21.11
-24.00
-27.43
-31.84
-37.41
-43.98
-50.91
-57.14
-61.44
-62.76
-60.58
-55.02
-46.84
-37.22
-27.42
-18.45
-10.91
-4.92
-0.26
3.40
6.34
8.66
10.40
11.57
12.35
13.01
13.88
15.18
16.87
18.71
20.32
21.34
21.57
21.08
20.26
19.76
20.39
22.69
26.71
31.90
37.33
42.04
45.50
47.77
49.40
50.95
52.70
54.44
55.58
55.43
53.44
49.31
42.93
34.47
24.35
13.45
3.01
-5.57
-11.13
-13.15
-11.84
-8.15
-3.36
1.24
4.73
6.62
6.86
5.68
3.48
0.70
-2.26
-5.11
-7.66
-9.79
-11.49
-12.75
-13.54
-13.87
-13.77
-13.35
-12.75
-12.14
-11.69
-11.49
-11.62
-12.15
-13.17
-14.76
-16.99
-19.80
-23.08
-26.63
-30.25
-33.79
-37.11
-40.14
-42.81
-45.11
-47.11
-48.94
-50.80
-52.97
-55.72
-59.31
-63.79
-68.88
-73.85
-77.55
-78.69
-76.29
-69.99
-60.35
-48.60
-36.27
-24.76
-14.96
-7.16
-1.26
3.11
6.36
8.85
10.83
12.46
13.81
14.85
15.56
15.96
16.15
16.29
16.58
17.15
17.99
18.98
19.88
20.51
20.75
20.61
20.13
19.40
18.42
17.12
15.37
13.02
10.00
6.41
2.48
-1.45
-5.05
-8.11
-10.65
-12.97
-15.53
-18.85
-23.34
-29.08
-35.67
-42.27
-47.67
-50.60
-50.10
-45.87
-38.33
-28.59
-18.04
-7.99
0.56
7.12
11.62
14.31
15.61
16.03
16.03
15.96
15.98
16.12
16.37
16.66
16.96
17.25
17.47
17.50
17.25
16.71
15.97
15.19
14.46
13.76
12.89
11.60
9.70
7.15
4.09
0.78
-2.52
-5.60
-8.38
-10.85
-13.14
-15.50
-18.21
-21.58
-25.65
-30.17
-34.42
-37.42
-38.12
-35.82
-30.42
-22.51
-13.20
-3.79
4.63
11.41
16.40
19.83
22.09
23.49
24.18
24.14
23.38
21.99
20.26
18.61
17.47
17.04
17.27
17.87
18.46
18.73
18.55
17.97
17.08
15.96
14.54
12.66
10.18
7.07
3.53
-0.14
-3.61
-6.70
-9.47
-12.23
-15.36
-19.19
-23.81
-29.10
-34.74
-40.32
-45.35
-49.25
-51.28
-50.71
-47.04
-40.29
-31.13
-20.75
-10.52
-1.51
5.78
11.40
15.79
19.35
22.30
24.64
26.28
27.16
27.34
26.90
25.92
24.53
22.93
21.42
20.38
20.09
20.53
21.42
22.25
22.57
22.06
20.75
18.78
16.40
13.75
10.86
7.74
4.38
0.89
-2.62
-6.01
-9.19
-12.13
-14.88
-17.64
-20.64
-24.21
-28.58
-33.73
-39.22
-44.21
-47.58
-48.27
-45.64
-39.74
-31.32
-21.59
-11.82
-3.05
4.17
9.66
13.57
16.20
17.93
19.11
20.01
20.80
21.42
21.78
21.75
21.33
20.67
19.96
19.38
18.97
18.74
18.67
18.78
19.08
19.50
19.78
19.56
18.45
16.23
12.97
8.98
4.73
0.70
-2.70
-5.29
-7.10
-8.34
-9.44
-10.92
-13.25
-16.72
-21.38
-26.92
-32.72
-37.87
-41.33
-42.15
-39.74
-34.08
-25.78
-15.96
-5.97
3.04
10.34
15.71
19.39
21.76
23.22
23.97
24.11
23.71
22.93
22.02
21.31
20.99
21.09
21.38
21.57
21.40
20.85
20.14
19.51
19.21
19.12
18.87
17.93
15.86
12.56
8.30
3.64
-0.81
-4.65
-7.83
-10.64
-13.51
-16.94
-21.20
-26.37
-32.20
-38.15
-43.38
-46.85
-47.59
-44.99
-39.06
-30.59
-20.79
-11.03
-2.27
5.04
10.99
15.85
19.87
22.99
25.03
25.82
25.39
24.05
22.29
20.66
19.58
19.26
19.66
20.55
21.60
22.45
22.84
22.65
21.96
20.83
19.35
17.45
15.02
11.94
8.19
3.93
-0.51
-4.74
-8.45
-11.57
-14.28
-16.93
-19.96
-23.75
-28.48
-34.09
-40.22
-46.18
-50.93
-53.40
-52.68
-48.39
-40.88
-31.15
-20.57
-10.41
-1.56
5.64
11.27
15.57
18.85
21.32
23.19
24.63
25.75
26.58
27.07
27.21
27.06
26.80
26.66
26.82
27.29
27.90
28.38
28.51
28.22
27.61
26.78
25.79
24.55
22.87
20.54
17.49
13.86
9.93
6.06
2.51
-0.68
-3.68
-6.79
-10.35
-14.60
-19.69
-25.64
-32.32
-39.35
-46.02
-51.32
-54.16
-53.71
-49.67
-42.53
-33.39
-23.57
-14.18
-5.83
1.33
7.42
12.54
16.66
19.67
21.56
22.51
22.88
23.06
23.25
23.47
23.62
23.57
23.33
23.02
22.78
22.76
22.97
23.37
23.82
24.17
24.16
23.54
22.04
19.55
16.15
12.15
7.99
4.10
0.72
-2.11
-4.55
-6.93
-9.60
-12.95
-17.23
-22.51
-28.46
-34.36
-39.13
-41.63
-40.95
-36.74
-29.33
-19.71
-9.21
0.89
9.62
16.56
21.64
25.13
27.28
28.31
28.37
27.70
26.60
25.49
24.79
24.75
25.38
26.39
27.39
27.97
27.91
27.22
26.07
24.75
23.44
22.15
20.68
18.73
16.00
12.37
7.90
2.85
-2.41
-7.46
-11.99
-15.84
-19.12
-22.16
-25.39
-29.20
-33.80
-39.12
-44.77
-50.10
-54.28
-56.40
-55.65
-51.52
-43.95
-33.51
-21.32
-8.85
2.44
11.54
18.04
22.12
24.33
25.28
25.47
25.25
24.87
24.64
24.88
25.79
27.39
29.45
31.55
33.23
34.18
34.27
33.56
32.16
30.23
27.87
25.21
22.34
19.34
16.23
13.00
9.66
6.17
2.53
-1.21
-5.02
-8.82
-12.49
-15.91
-19.02
-21.89
-24.76
-27.99
-31.97
-36.86
-42.54
-48.38
-53.39
-56.42
-56.44
-52.94
-46.07
-36.67
-26.00
-15.40
-5.87
2.01
8.20
12.94
16.56
19.26
21.09
22.05
22.15
21.58
20.67
19.80
19.27
19.27
19.76
20.59
21.54
22.42
23.07
23.36
23.25
22.74
21.85
20.62
19.10
17.22
14.94
12.13
8.81
5.08
1.17
-2.65
-6.16
-9.28
-12.16
-15.06
-18.38
-22.47
-27.47
-33.20
-39.03
-44.00
-46.97
-47.00
-43.63
-37.06
-28.17
-18.19
-8.38
0.27
7.24
12.45
16.11
18.59
20.30
21.62
22.92
24.49
26.51
29.05
32.01
35.19
38.31
41.09
43.27
44.74
45.47
45.58
45.16
44.29
42.89
40.77
37.67
33.41
28.01
21.69
14.83
7.87
1.13
-5.20
-11.01
-16.29
-21.11
-25.59
-29.98
-34.58
-39.61
-44.99
-50.24
-54.47
-56.65
-55.95
-52.04
-45.24
-36.38
-26.62
-17.01
-8.30
-0.81
5.47
10.75
15.27
19.22
22.63
25.44
27.53
28.83
29.39
29.41
29.18
29.05
29.25
29.90
30.97
32.26
33.54
34.60
35.32
35.65
35.59
35.11
34.09
32.41
29.93
26.63
22.58
17.99
13.15
8.33
3.66
-0.85
-5.36
-10.13
-15.42
-21.47
-28.34
-35.91
-43.73
-51.06
-56.89
-60.20
-60.18
-56.57
-49.76
-40.75
-30.92
-21.60
-13.70
-7.62
-3.20
0.00
2.51
4.69
6.69
8.48
9.93
10.91
11.39
11.40
11.09
10.62
10.16
9.85
9.80
10.08
10.70
11.58
12.49
13.11
13.08
12.09
10.07
7.18
3.76
0.20
-3.23
-6.45
-9.59
-12.81
-16.23
-19.82
-23.40
-26.77
-29.80
-32.46
-34.88
-37.27
-39.89
-42.97
-46.58
-50.64
-54.71
-58.07
-59.67
-58.36
-53.11
-43.36
-29.27
-11.77
7.52
26.68
43.89
57.78
67.66
73.55
75.97
75.69
73.46
69.77
64.90
58.92
51.89
43.98
35.51
26.90
18.62
11.10
4.62
-0.69
-4.93
-8.37
-11.43
-14.60
-18.22
-22.46
-27.13
-31.88
-36.24
-39.88
-42.65
-44.63
-46.04
-47.08
-47.96
-48.80
-49.68
-50.66
-51.83
-53.30
-55.21
-57.68
-60.67
-64.00
-67.16
-69.34
-69.59
-67.09
-61.50
-53.07
-42.65
-31.30
-20.08
-9.68
-0.43
7.55
14.25
19.54
23.31
25.52
26.29
25.94
24.95
23.81
22.93
22.55
22.69
23.18
23.83
24.47
25.01
25.45
25.68
25.55
24.81
23.26
20.83
17.60
13.76
9.49
4.93
0.22
-4.46
-8.92
-12.97
-16.65
-20.25
-24.23
-28.99
-34.64
-40.81
-46.67
-51.11
-53.00
-51.53
-46.47
-38.23
-27.85
-16.67
-6.06
3.01
10.10
15.36
19.22
22.16
24.47
26.19
27.22
27.48
27.07
26.24
25.33
24.59
24.13
23.85
23.55
23.12
22.52
21.85
21.23
20.77
20.38
19.83
18.81
17.01
14.28
10.71
6.60
2.37
-1.66
-5.30
-8.66
-12.01
-15.69
-19.99
-25.09
-31.02
-37.59
-44.34
-50.45
-54.79
-56.17
-53.76
-47.38
-37.70
-26.07
-14.09
-3.13
6.01
13.08
18.29
21.98
24.51
26.17
27.22
27.95
28.53
29.14
29.77
30.36
30.82
31.08
31.16
31.11
31.03
30.93
30.83
30.62
30.10
29.07
27.37
24.89
21.70
17.93
13.76
9.34
4.82
0.30
-4.07
-8.19
-12.04
-15.67
-19.23
-22.96
-27.11
-31.93
-37.55
-43.84
-50.25
-55.84
-59.40
-59.84
-56.57
-49.73
-40.17
-29.11
-17.76
-7.03
2.57
10.82
17.62
22.91
26.73
29.26
30.83
31.87
32.69
33.46
34.20
34.74
34.93
34.69
34.05
33.15
32.20
31.40
30.83
30.46
30.14
29.66
28.78
27.26
24.89
21.56
17.29
12.29
6.99
1.83
-2.79
-6.66
-9.86
-12.77
-15.87
-19.67
-24.50
-30.35
-36.83
-43.12
-48.03
-50.30
-48.94
-43.53
-34.45
-22.75
-9.89
2.65
13.75
22.80
29.72
34.71
38.12
40.21
41.17
41.15
40.32
39.01
37.58
36.38
35.63
35.44
35.67
36.08
36.35
36.16
35.35
33.89
32.01
29.94
27.88
25.76
23.29
20.16
16.15
11.35
6.07
0.73
-4.37
-9.09
-13.45
-17.57
-21.59
-25.67
-30.08
-35.21
-41.41
-48.83
-57.11
-65.32
-71.95
-75.42
-74.52
-68.91
-59.20
-46.80
-33.38
-20.35
-8.53
1.87
10.94
18.78
25.32
30.44
34.09
36.43
37.80
38.60
39.08
39.40
39.63
39.85
40.19
40.74
41.49
42.31
42.97
43.26
43.09
42.46
41.38
39.78
37.56
34.60
30.96
26.90
22.81
19.01
15.58
12.26
8.64
4.28
-0.98
-6.90
-12.93
-18.42
-22.93
-26.40
-29.25
-32.27
-36.34
-42.12
-49.67
-58.30
-66.60
-72.77
-75.15
-72.75
-65.54
-54.42
-40.89
-26.58
-12.88
-0.73
9.46
17.63
23.94
28.63
31.95
34.13
35.36
35.91
36.06
36.15
36.41
36.95
37.67
38.37
38.89
39.23
39.53
39.97
40.56
41.13
41.34
40.82
39.33
36.85
33.51
29.60
25.39
21.18
17.13
13.35
9.78
6.29
2.71
-1.04
-4.91
-8.77
-12.47
-15.99
-19.50
-23.28
-27.72
-33.15
-39.66
-46.98
-54.35
-60.60
-64.36
-64.45
-60.26
-51.99
-40.64
-27.68
-14.65
-2.72
7.44
15.70
22.20
27.15
30.69
32.86
33.71
33.41
32.30
30.82
29.44
28.49
28.14
28.33
28.92
29.68
30.35
30.70
30.54
29.73
28.27
26.23
23.74
20.93
17.88
14.61
11.13
7.44
3.59
-0.33
-4.17
-7.76
-10.94
-13.66
-16.06
-18.43
-21.26
-25.03
-30.11
-36.58
-44.09
-51.79
-58.44
-62.61
-63.08
-59.26
-51.40
-40.61
-28.47
-16.62
-6.18
2.36
9.09
14.41
18.65
21.96
24.35
25.84
26.56
26.76
26.69
26.51
26.38
26.34
26.52
26.99
27.82
28.93
30.12
31.13
31.71
31.70
30.93
29.35
26.89
23.59
19.70
15.56
11.54
7.83
4.34
0.77
-3.19
-7.60
-12.23
-16.59
-20.27
-23.11
-25.37
-27.66
-30.70
-35.06
-40.97
-48.16
-55.79
-62.65
-67.34
-68.63
-65.81
-58.91
-48.73
-36.59
-23.95
-12.06
-1.75
6.65
13.15
17.96
21.34
23.59
25.00
25.85
26.36
26.66
26.75
26.60
26.26
25.82
25.49
25.50
25.97
26.86
27.97
28.94
29.45
29.21
28.03
25.86
22.88
19.45
15.99
12.88
10.24
7.88
5.42
2.45
-1.16
-5.29
-9.56
-13.55
-17.03
-20.01
-22.80
-25.81
-29.43
-33.98
-39.52
-45.81
-52.17
-57.51
-60.52
-60.07
-55.61
-47.48
-36.85
-25.31
-14.36
-4.97
2.56
8.44
13.05
16.70
19.52
21.51
22.64
23.00
22.78
22.15
21.35
20.57
20.00
19.82
20.11
20.81
21.74
22.66
23.31
23.50
23.13
22.19
20.70
18.70
16.28
13.52
10.55
7.49
4.43
1.39
-1.67
-4.80
-8.10
-11.66
-15.58
-20.00
-25.07
-30.79
-37.02
-43.31
-48.88
-52.77
-54.05
-52.05
-46.65
-38.36
-28.17
-17.44
-7.43
0.94
7.36
12.03
15.43
18.04
20.09
21.50
22.08
21.76
20.73
19.42
18.31
17.69
17.52
17.60
17.64
17.48
17.15
16.74
16.28
15.67
14.71
13.19
10.97
7.98
4.31
0.12
-4.38
-8.86
-13.10
-16.93
-20.37
-23.61
-26.94
-30.70
-35.18
-40.59
-46.89
-53.68
-60.14
-65.07
-67.18
-65.48
-59.68
-50.37
-38.79
-26.52
-14.92
-4.88
3.23
9.55
14.38
18.13
21.10
23.49
25.40
26.78
27.61
27.87
27.64
27.08
26.37
25.64
24.95
24.30
23.68
23.13
22.70
22.40
22.12
21.58
20.43
18.32
15.14
10.98
6.17
1.13
-3.78
-8.32
-12.41
-16.13
-19.64
-23.23
-27.26
-32.11
-37.99
-44.74
-51.71
-57.77
-61.58
-62.01
-58.54
-51.43
-41.62
-30.42
-19.10
-8.61
0.50
8.05
14.09
18.77
22.24
24.63
26.17
27.11
27.70
28.15
28.54
28.89
29.20
29.43
29.59
29.69
29.73
29.71
29.53
29.07
28.20
26.82
24.95
22.66
20.07
17.31
14.38
11.24
7.78
3.94
-0.25
-4.56
-8.70
-12.43
-15.70
-18.70
-21.86
-25.71
-30.72
-37.03
-44.30
-51.58
-57.55
-60.81
-60.29
-55.63
-47.29
-36.42
-24.48
-12.87
-2.63
5.72
12.13
16.85
20.24
22.63
24.24
25.14
25.39
25.10
24.45
23.83
23.54
23.78
24.52
25.49
26.39
26.96
27.14
26.95
26.46
25.63
24.33
22.38
19.69
16.32
12.49
8.51
4.61
0.89
-2.68
-6.23
-9.86
-13.67
-17.73
-22.15
-27.09
-32.61
-38.58
-44.43
-49.20
-51.70
-50.92
-46.36
-38.37
-28.02
-16.76
-5.97
3.48
11.26
17.49
22.37
25.94
28.03
28.49
27.42
25.31
22.98
21.21
20.49
20.84
21.88
23.07
24.00
24.48
24.55
24.31
23.85
23.09
21.95
20.25
17.86
14.73
10.91
6.60
2.08
-2.36
-6.52
-10.33
-13.96
-17.69
-21.90
-26.94
-33.00
-40.09
-47.83
-55.44
-61.79
-65.63
-65.91
-62.16
-54.71
-44.57
-33.13
-21.79
-11.53
-2.78
4.49
10.59
15.83
20.40
24.34
27.53
29.84
31.23
31.79
31.76
31.49
31.29
31.37
31.75
32.30
32.90
33.37
33.60
33.45
32.75
31.33
29.12
26.24
22.97
19.62
16.39
13.26
10.03
6.45
2.44
-1.89
-6.29
-10.55
-14.61
-18.71
-23.21
-28.51
-34.82
-42.06
-49.75
-57.03
-62.76
-65.74
-65.03
-60.24
-51.79
-40.71
-28.44
-16.36
-5.47
3.77
11.33
17.47
22.53
26.76
30.27
33.03
35.00
36.17
36.64
36.69
36.69
36.94
37.60
38.59
39.69
40.63
41.27
41.61
41.67
41.39
40.58
39.00
36.51
33.24
29.59
26.10
23.24
21.14
19.52
17.80
15.36
11.82
7.22
1.98
-3.30
-8.09
-12.16
-15.65
-18.98
-22.72
-27.38
-33.27
-40.38
-48.28
-56.14
-62.74
-66.70
-66.85
-62.54
-53.96
-42.11
-28.62
-15.21
-3.26
6.48
13.93
19.49
23.60
26.62
28.68
29.81
30.14
29.96
29.74
29.92
30.70
31.94
33.24
34.10
34.20
33.46
32.06
30.28
28.38
26.45
24.44
22.21
19.63
16.63
13.21
9.41
5.31
0.99
-3.39
-7.73
-11.93
-15.97
-19.97
-24.17
-28.89
-34.35
-40.49
-46.81
-52.36
-55.97
-56.52
-53.31
-46.33
-36.27
-24.43
-12.31
-1.23
7.99
15.11
20.40
24.31
27.26
29.46
30.98
31.78
31.92
31.60
31.08
30.61
30.32
30.23
30.33
30.61
31.11
31.81
32.61
33.20
33.19
32.19
29.95
26.56
22.43
18.18
14.44
11.54
9.45
7.71
5.72
2.94
-0.85
-5.55
-10.78
-16.06
-20.95
-25.17
-28.59
-31.38
-33.91
-36.78
-40.58
-45.57
-51.38
-56.88
-60.50
-60.73
-56.75
-48.68
-37.53
-24.81
-11.98
-0.15
10.04
18.35
24.79
29.55
32.95
35.38
37.18
38.60
39.70
40.43
40.68
40.41
39.65
38.47
36.98
35.35
33.74
32.24
30.83
29.34
27.57
25.36
22.75
19.94
17.16
14.59
12.23
9.93
7.52
4.95
2.30
-0.25
-2.53
-4.51
-6.39
-8.42
-10.84
-13.71
-16.88
-20.06
-23.00
-25.64
-28.16
-30.89
-34.15
-38.21
-43.20
-49.04
-55.36
-61.38
-65.97
-67.83
-65.93
-59.95
-50.49
-38.96
-27.14
-16.61
-8.29
-2.35
1.70
4.70
7.60
11.19
15.97
21.94
28.63
35.18
40.70
44.45
46.15
45.94
44.22
41.48
38.08
34.29
30.43
26.88
24.13
22.59
22.40
23.29
24.64
25.75
26.07
25.39
23.96
22.23
20.63
19.34
18.22
16.89
15.00
12.36
8.98
4.84
-0.13
-6.18
-13.41
-21.62
-29.96
-37.05
-41.35
-41.73
-37.87
-30.47
-20.93
-10.85
-1.55
6.30
12.58
17.56
21.52
24.58
26.71
27.77
27.70
26.53
24.50
21.92
19.19
16.67
14.72
13.57
13.29
13.72
14.53
15.26
15.44
14.75
13.11
10.56
7.39
3.90
0.37
-3.04
-6.34
-9.64
-13.03
-16.54
-20.06
-23.35
-26.27
-28.71
-30.74
-32.56
-34.49
-36.86
-40.02
-44.18
-49.29
-54.83
-59.88
-63.18
-63.49
-60.04
-52.79
-42.57
-30.76
-18.86
-8.13
0.78
7.74
13.01
16.91
19.73
21.60
22.65
23.01
22.90
22.52
22.06
21.53
20.88
20.04
18.96
17.79
16.74
16.04
15.78
15.81
15.71
14.94
13.11
10.11
6.22
1.96
-2.11
-5.70
-8.79
-11.67
-14.70
-18.16
-22.07
-26.27
-30.49
-34.58
-38.54
-42.61
-47.22
-52.80
-59.60
-67.47
-75.75
-83.28
-88.63
-90.39
-87.60
-79.96
-68.05
-53.23
-37.34
-22.26
-9.47
0.29
7.08
11.52
14.41
16.32
17.47
17.83
17.38
16.30
15.03
14.14
14.06
14.88
16.45
18.48
20.72
23.02
25.28
27.39
29.13
30.27
30.63
30.19
29.08
27.50
25.62
23.48
21.03
18.16
14.76
10.80
6.39
1.68
-3.11
-7.81
-12.36
-16.88
-21.64
-26.97
-33.04
-39.65
-46.09
-51.18
-53.65
-52.56
-47.66
-39.55
-29.43
-18.77
-8.82
-0.47
5.87
10.10
12.43
13.19
12.93
12.15
11.24
10.33
9.32
8.06
6.59
5.20
4.39
4.67
6.32
9.26
13.09
17.27
21.25
24.61
27.07
28.51
28.89
28.32
27.03
25.34
23.56
21.86
20.27
18.67
16.85
14.59
11.81
8.58
5.15
1.95
-0.60
-2.27
-3.21
-3.96
-5.35
-8.13
-12.56
-18.20
-23.89
-28.11
-29.51
-27.34
-21.68
-13.37
-3.67
6.12
15.00
22.36
27.99
31.89
34.22
35.13
34.87
33.74
32.05
30.13
28.17
26.21
24.18
21.95
19.43
16.69
13.92
11.41
9.38
7.94
7.07
6.56
6.12
5.48
4.40
2.76
0.60
-1.93
-4.64
-7.35
-10.03
-12.80
-15.80
-19.15
-22.77
-26.42
-29.78
-32.62
-34.96
-37.11
-39.52
-42.60
-46.62
-51.62
-57.41
-63.63
-69.65
-74.61
-77.44
-77.18
-73.16
-65.35
-54.40
-41.59
-28.44
-16.32
-6.11
1.94
8.05
12.71
16.35
19.19
21.32
22.73
23.42
23.54
23.24
22.67
21.94
21.13
20.32
19.68
19.38
19.56
20.24
21.31
22.54
23.59
24.13
23.80
22.41
19.93
16.58
12.77
8.94
5.44
2.37
-0.34
-2.90
-5.58
-8.70
-12.59
-17.59
-23.77
-30.74
-37.52
-42.66
-44.76
-42.87
-36.96
-27.88
-17.05
-5.96
4.21
12.85
19.78
25.05
28.74
30.91
31.59
30.93
29.22
26.95
24.70
22.98
22.12
22.08
22.51
22.92
22.89
22.26
21.19
20.00
18.93
17.99
16.86
15.06
12.17
8.01
2.80
-3.00
-8.78
-14.07
-18.64
-22.53
-26.04
-29.59
-33.58
-38.31
-43.86
-49.97
-55.93
-60.64
-62.89
-61.68
-56.69
-48.41
-38.04
-27.03
-16.63
-7.53
0.13
6.51
11.86
16.27
19.79
22.42
24.20
25.27
25.74
25.75
25.45
25.05
24.76
24.74
25.00
25.47
26.01
26.53
26.99
27.35
27.46
27.00
25.61
22.98
19.05
14.10
8.65
3.29
-1.57
-5.79
-9.61
-13.39
-17.62
-22.64
-28.58
-35.24
-42.04
-48.11
-52.39
-53.84
-51.73
-45.91
-36.89
-25.82
-14.13
-3.15
6.23
13.70
19.44
23.83
27.22
29.76
31.49
32.46
32.83
32.91
33.06
33.50
34.22
34.99
35.47
35.35
34.53
33.21
31.76
30.56
29.76
29.23
28.53
27.19
24.90
21.60
17.51
12.97
8.30
3.69
-0.84
-5.33
-9.95
-14.87
-20.33
-26.53
-33.51
-41.00
-48.38
-54.64
-58.67
-59.47
-56.51
-49.88
-40.35
-29.14
-17.59
-6.81
2.60
10.48
16.98
22.27
26.39
29.25
30.83
31.31
31.13
30.83
30.86
31.39
32.28
33.33
34.35
35.28
36.14
36.87
37.30
37.10
35.90
33.42
29.57
24.55
18.83
13.02
7.64
2.96
-1.23
-5.46
-10.46
-16.78
-24.61
-33.60
-43.03
-51.91
-59.12
-63.65
-64.70
-61.90
-55.42
-46.05
-34.98
-23.53
-12.76
-3.27
4.82
11.72
17.59
22.49
26.27
28.75
29.94
30.11
29.76
29.37
29.24
29.41
29.71
30.02
30.31
30.68
31.19
31.76
32.11
31.88
30.73
28.50
25.22
21.06
16.33
11.35
6.52
2.13
-1.64
-4.91
-8.03
-11.52
-15.85
-21.35
-28.13
-35.97
-44.34
-52.28
-58.55
-61.84
-61.14
-56.15
-47.35
-35.97
-23.50
-11.37
-0.47
8.76
16.34
22.45
27.33
31.15
34.06
36.21
37.71
38.70
39.34
39.77
40.11
40.34
40.37
40.10
39.51
38.79
38.24
38.14
38.57
39.23
39.56
38.98
37.14
34.06
30.13
25.83
21.57
17.52
13.63
9.78
5.90
1.98
-1.96
-5.93
-10.03
-14.34
-18.82
-23.38
-27.87
-32.23
-36.60
-41.28
-46.62
-52.77
-59.48
-65.96
-71.03
-73.42
-72.14
-66.89
-58.07
-46.74
-34.25
-21.88
-10.53
-0.60
7.82
14.87
20.72
25.50
29.30
32.25
34.51
36.26
37.65
38.75
39.59
40.19
40.59
40.88
41.13
41.36
41.52
41.47
40.98
39.81
37.78
34.88
31.24
27.15
23.00
19.15
15.78
12.85
10.15
7.36
4.25
0.79
-2.96
-6.86
-10.77
-14.60
-18.27
-21.74
-25.08
-28.56
-32.63
-37.70
-43.90
-50.75
-57.11
-61.44
-62.31
-58.91
-51.39
-40.74
-28.45
-16.02
-4.59
5.16
13.03
19.08
23.52
26.56
28.41
29.28
29.40
29.00
28.36
27.73
27.27
27.03
26.95
26.92
26.83
26.64
26.37
26.03
25.61
25.00
24.09
22.80
21.10
19.00
16.56
13.79
10.64
7.10
3.26
-0.71
-4.55
-8.07
-11.21
-14.18
-17.30
-20.98
-25.56
-31.17
-37.57
-44.15
-50.02
-54.06
-55.29
-53.10
-47.43
-38.90
-28.54
-17.60
-7.19
1.89
9.24
14.76
18.54
20.84
22.04
22.52
22.65
22.64
22.55
22.34
22.03
21.73
21.65
21.98
22.69
23.54
24.19
24.34
23.91
22.94
21.64
20.09
18.26
16.01
13.19
9.79
5.89
1.68
-2.68
-7.08
-11.47
-15.84
-20.08
-24.06
-27.71
-31.06
-34.40
-38.15
-42.64
-47.88
-53.33
-57.91
-60.31
-59.45
-54.87
-46.93
-36.64
-25.33
-14.25
-4.32
3.98
10.49
15.29
18.59
20.70
22.00
22.88
23.64
24.37
25.04
25.48
25.60
25.41
25.03
24.65
24.46
24.50
24.75
25.04
25.06
24.47
23.01
20.58
17.39
13.90
10.64
7.95
5.79
3.77
1.39
-1.70
-5.47
-9.57
-13.47
-16.75
-19.29
-21.27
-23.16
-25.50
-28.85
-33.49
-39.31
-45.73
-51.72
-56.02
-57.50
-55.47
-49.93
-41.49
-31.23
-20.39
-10.05
-0.93
6.63
12.61
17.13
20.24
22.01
22.51
21.98
20.82
19.53
18.51
18.01
17.99
18.38
19.00
19.80
20.62
21.28
21.49
20.98
19.63
17.48
14.71
11.53
8.05
4.36
0.53
-3.30
-7.00
-10.53
-14.01
-17.64
-21.68
-26.28
-31.51
-37.26
-43.32
-49.25
-54.34
-57.76
-58.65
-56.48
-51.21
-43.43
-34.11
-24.38
-15.20
-7.20
-0.65
4.51
8.49
11.55
13.86
15.49
16.39
16.52
15.94
14.88
13.75
12.96
12.84
13.53
14.99
16.98
19.20
21.26
22.79
23.49
23.15
21.74
19.37
16.28
12.71
8.90
5.11
1.47
-1.83
-4.72
-7.23
-9.52
-11.90
-14.75
-18.35
-22.91
-28.40
-34.60
-41.09
-47.25
-52.31
-55.44
-55.87
-53.11
-47.10
-38.38
-27.96
-17.05
-6.76
2.18
9.54
15.39
19.97
23.49
26.04
27.65
28.39
28.40
27.90
27.09
26.18
25.38
24.87
24.78
25.18
26.03
27.11
28.13
28.78
28.82
28.11
26.62
24.34
21.29
17.51
13.13
8.37
3.57
-0.95
-5.00
-8.53
-11.68
-14.70
-17.85
-21.40
-25.54
-30.42
-36.06
-42.26
-48.46
-53.78
-57.15
-57.57
-54.49
-47.97
-38.69
-27.79
-16.53
-5.98
3.21
10.82
16.91
21.69
25.28
27.75
29.13
29.53
29.18
28.41
27.53
26.80
26.32
26.12
26.10
26.17
26.27
26.30
26.19
25.89
25.35
24.44
22.93
20.56
17.07
12.48
7.07
1.40
-3.92
-8.50
-12.27
-15.54
-18.80
-22.57
-27.21
-32.83
-39.32
-46.21
-52.68
-57.57
-59.60
-57.74
-51.66
-41.90
-29.82
-17.15
-5.45
4.26
11.70
17.11
21.02
23.92
26.16
27.89
29.19
30.13
30.75
31.08
31.09
30.76
30.12
29.29
28.48
27.87
27.62
27.66
27.82
27.80
27.34
26.21
24.27
21.45
17.77
13.40
8.56
3.55
-1.30
-5.81
-9.91
-13.60
-16.94
-20.05
-23.17
-26.71
-31.13
-36.73
-43.36
-50.32
-56.39
-60.19
-60.57
-56.96
-49.47
-38.89
-26.47
-13.60
-1.57
8.69
16.68
22.41
26.24
28.67
30.22
31.22
31.83
32.11
32.09
31.85
31.52
31.28
31.25
31.47
31.87
32.33
32.67
32.77
32.53
31.85
30.61
28.75
26.25
23.26
20.02
16.74
13.58
10.47
7.20
3.59
-0.41
-4.63
-8.78
-12.57
-15.95
-19.16
-22.67
-26.99
-32.50
-39.17
-46.49
-53.46
-58.81
-61.28
-60.07
-55.00
-46.62
-35.99
-24.36
-12.90
-2.46
6.46
13.60
18.95
22.66
25.02
26.43
27.30
27.95
28.60
29.27
29.93
30.52
31.04
31.52
32.03
32.63
33.29
33.93
34.35
34.34
33.71
32.34
30.27
27.63
24.62
21.44
18.22
15.01
11.74
8.36
4.72
0.80
-3.32
-7.44
-11.32
-14.73
-17.68
-20.39
-23.35
-27.10
-32.02
-38.09
-44.74
-50.84
-55.02
-56.01
-53.07
-46.22
-36.23
-24.42
-12.21
-0.84
8.92
16.73
22.59
26.56
28.77
29.35
28.61
27.05
25.24
23.75
22.90
22.69
22.91
23.25
23.46
23.46
23.28
22.98
22.55
21.91
20.94
19.55
17.71
15.38
12.53
9.13
5.16
0.71
-4.03
-8.80
-13.38
-17.67
-21.72
-25.70
-29.79
-34.22
-39.09
-44.43
-49.95
-55.08
-58.81
-60.03
-57.77
-51.67
-42.20
-30.52
-18.19
-6.59
3.34
11.27
17.32
21.83
25.15
27.53
29.13
30.00
30.19
29.77
28.90
27.81
26.78
26.03
25.70
25.80
26.24
26.86
27.50
27.94
27.98
27.37
25.96
23.66
20.57
16.84
12.71
8.40
4.06
-0.18
-4.26
-8.15
-11.85
-15.41
-18.88
-22.38
-26.02
-30.06
-34.83
-40.63
-47.53
-55.20
-62.77
-69.01
-72.52
-72.26
-67.85
-59.72
-48.99
-37.11
-25.45
-14.95
-5.94
1.62
8.05
13.55
18.20
21.92
24.65
26.47
27.58
28.24
28.65
28.85
28.84
28.66
28.45
28.48
28.97
29.93
31.15
32.17
32.48
31.62
29.41
25.99
21.82
17.46
13.42
9.94
6.90
3.97
0.72
-3.09
-7.44
-12.03
-16.51
-20.57
-24.15
-27.46
-30.91
-34.96
-40.01
-46.14
-52.96
-59.58
-64.67
-66.86
-65.18
-59.40
-50.26
-39.16
-27.76
-17.37
-8.62
-1.45
4.58
9.94
14.81
19.10
22.55
25.03
26.55
27.27
27.36
26.87
25.80
24.19
22.20
20.15
18.35
16.89
15.62
14.19
12.25
9.60
6.28
2.56
-1.25
-4.84
-8.06
-10.79
-13.07
-14.93
-16.49
-17.94
-19.47
-21.29
-23.60
-26.57
-30.33
-34.88
-39.96
-44.91
-48.71
-50.21
-48.49
-43.17
-34.55
-23.49
-11.07
1.71
14.10
25.56
35.70
44.15
50.61
54.91
57.23
58.04
58.06
58.01
58.40
59.40
60.85
62.46
63.89
64.92
65.39
65.16
64.12
62.33
60.12
58.05
56.64
56.02
55.70
54.74
52.20
47.72
41.68
34.99
28.49
22.53
16.92
11.24
5.33
-0.50
-5.73
-10.00
-13.57
-17.25
-22.05
-28.67
-36.99
-45.96
-53.85
-58.75
-59.11
-54.32
-44.90
-32.34
-18.67
-5.83
4.83
12.67
17.70
20.32
21.02
20.35
18.84
17.05
15.43
14.22
13.47
12.96
12.51
11.98
11.47
11.27
11.73
13.13
15.49
18.51
21.61
24.04
25.16
24.65
22.59
19.43
15.82
12.30
9.18
6.47
3.93
1.34
-1.44
-4.35
-7.21
-9.81
-12.04
-13.94
-15.81
-18.22
-22.03
-28.16
-37.25
-49.14
-62.57
-75.25
-84.47
-88.02
-85.05
-76.39
-64.17
-51.03
-39.21
-29.97
-23.57
-19.59
-17.36
-16.20
-15.48
-14.55
-12.76
-9.59
-4.86
1.19
7.88
14.36
19.93
24.26
27.50
30.12
32.71
35.59
38.72
41.62
43.57
43.93
42.33
38.89
34.17
28.93
23.91
19.58
16.01
12.96
10.02
6.87
3.33
-0.53
-4.55
-8.60
-12.71
-17.18
-22.48
-29.21
-37.76
-48.14
-59.68
-71.01
-80.22
-85.28
-84.69
-77.92
-65.60
-49.40
-31.48
-13.91
1.74
14.56
24.22
30.72
34.25
35.17
34.13
31.99
29.81
28.48
28.53
29.97
32.37
35.12
37.72
39.91
41.69
43.19
44.42
45.23
45.33
44.37
42.12
38.56
33.86
28.31
22.26
16.04
9.89
3.95
-1.72
-7.17
-12.41
-17.41
-22.06
-26.23
-29.86
-33.17
-36.61
-40.83
-46.37
-53.35
-61.19
-68.70
-74.35
-76.76
-75.09
-69.31
-60.12
-48.70
-36.34
-24.21
-13.16
-3.68
4.05
10.08
14.62
17.89
20.07
21.31
21.74
21.57
21.11
20.67
20.51
20.71
21.20
21.89
22.73
23.76
24.98
26.28
27.35
27.76
27.09
25.11
21.93
17.90
13.47
9.00
4.63
0.32
-4.10
-8.74
-13.54
-18.35
-22.89
-26.95
-30.52
-33.83
-37.27
-41.36
-46.46
-52.66
-59.55
-66.21
-71.36
-73.58
-71.75
-65.40
-54.92
-41.47
-26.69
-12.27
0.47
10.81
18.65
24.33
28.30
31.02
32.77
33.73
33.96
33.61
32.83
31.85
30.92
30.21
29.88
29.97
30.48
31.27
32.18
32.94
33.26
32.87
31.58
29.31
26.15
22.23
17.76
12.88
7.73
2.43
-2.84
-7.84
-12.31
-16.14
-19.43
-22.58
-26.13
-30.65
-36.51
-43.73
-51.87
-59.96
-66.67
-70.50
-70.22
-65.16
-55.54
-42.41
-27.33
-11.96
2.38
14.88
25.17
33.21
39.07
42.98
45.25
46.34
46.75
46.84
46.77
46.53
46.05
45.38
44.77
44.44
44.57
45.09
45.68
45.92
45.46
44.05
41.66
38.37
34.42
30.13
25.84
21.83
18.12
14.49
10.52
5.81
0.20
-6.11
-12.58
-18.65
-23.96
-28.54
-32.86
-37.57
-43.29
-50.34
-58.59
-67.31
-75.29
-80.99
-82.92
-80.11
-72.38
-60.53
-46.06
-30.81
-16.41
-3.93
6.20
14.04
19.89
24.10
26.96
28.71
29.62
29.92
29.85
29.61
29.40
29.37
29.66
30.32
31.27
32.37
33.40
34.11
34.32
33.87
32.61
30.46
27.44
23.69
19.55
15.35
11.32
7.45
3.50
-0.85
-5.76
-11.10
-16.54
-21.61
-26.05
-29.80
-33.11
-36.34
-39.96
-44.44
-50.19
-57.38
-65.67
-74.04
-80.80
-84.01
-82.12
-74.58
-62.11
-46.48
-29.86
-14.16
-0.59
10.44
19.12
25.88
31.13
35.17
38.16
40.23
41.45
41.91
41.65
40.84
39.71
38.55
37.66
37.20
37.14
37.26
37.23
36.78
35.73
34.09
31.96
29.46
26.62
23.35
19.49
14.85
9.36
3.20
-3.23
-9.41
-14.94
-19.66
-23.79
-27.74
-32.02
-36.98
-42.76
-49.35
-56.59
-64.13
-71.27
-77.04
-80.31
-80.22
-76.50
-69.61
-60.44
-49.83
-38.20
-25.48
-11.54
3.31
18.08
31.26
41.46
48.03
51.35
52.59
53.12
53.91
55.28
57.12
59.32
62.08
65.86
70.99
77.28
83.76
89.03
91.77
91.39
88.16
83.08
77.25
71.43
65.80
60.08
53.84
46.82
38.94
30.21
20.59
9.86
-2.21
-15.75
-30.76
-46.91
-63.57
-79.71
-93.95
-104.62
-110.21
-109.74
-103.20
-91.57
-76.59
-60.30
-44.50
-30.40
-18.56
-8.99
-1.46
4.35
8.63
11.46
12.89
13.06
12.30
11.21
10.41
10.36
11.19
12.69
14.48
16.22
17.74
19.05
20.16
20.95
21.19
20.52
18.69
15.63
11.47
6.50
1.05
-4.54
-9.99
-15.12
-19.83
-24.14
-28.19
-32.34
-37.04
-42.73
-49.69
-57.86
-66.61
-74.82
-80.96
-83.55
-81.52
-74.58
-63.37
-49.27
-34.03
-19.22
-5.97
5.23
14.44
21.97
28.13
33.12
37.00
39.72
41.28
41.72
41.21
40.03
38.57
37.22
36.35
36.23
36.88
38.12
39.53
40.58
40.79
39.84
37.72
34.68
31.11
27.35
23.58
19.75
15.67
11.21
6.35
1.27
-3.76
-8.56
-13.10
-17.51
-22.06
-27.10
-32.96
-39.92
-48.00
-56.81
-65.42
-72.37
-76.01
-74.97
-68.73
-57.78
-43.61
-28.10
-13.05
0.39
11.74
21.05
28.61
34.60
39.06
41.94
43.25
43.17
42.15
40.73
39.43
38.60
38.31
38.47
38.84
39.19
39.39
39.38
39.13
38.56
37.52
35.76
33.00
29.06
23.91
17.77
11.07
4.39
-1.75
-7.05
-11.51
-15.47
-19.46
-24.10
-29.94
-37.24
-45.91
-55.30
-64.22
-71.10
-74.31
-72.68
-65.89
-54.61
-40.34
-24.98
-10.29
2.50
12.84
20.78
26.69
31.02
34.11
36.15
37.26
37.53
37.16
36.43
35.65
35.10
34.85
34.88
35.05
35.23
35.36
35.42
35.40
35.18
34.54
33.14
30.65
26.81
21.61
15.29
8.31
1.34
-5.03
-10.42
-14.78
-18.47
-22.14
-26.49
-32.13
-39.34
-48.00
-57.56
-66.99
-74.97
-79.99
-80.74
-76.45
-67.14
-53.79
-38.06
-21.91
-7.02
5.51
15.39
22.92
28.73
33.36
37.13
40.04
42.00
42.99
43.19
42.98
42.76
42.82
43.22
43.86
44.55
45.15
45.61
45.90
45.90
45.36
43.97
41.52
37.99
33.68
29.07
24.58
20.44
16.56
12.62
8.18
3.07
-2.64
-8.54
-14.20
-19.28
-23.84
-28.24
-33.17
-39.29
-46.92
-55.91
-65.40
-74.02
-80.14
-82.25
-79.46
-71.72
-59.88
-45.43
-30.12
-15.44
-2.37
8.65
17.70
25.03
30.92
35.55
38.98
41.27
42.51
42.90
42.70
42.20
41.63
41.16
40.87
40.76
40.74
40.70
40.54
40.10
39.28
37.93
35.96
33.26
29.78
25.54
20.64
15.34
9.92
4.65
-0.32
-4.92
-9.20
-13.28
-17.34
-21.68
-26.68
-32.74
-39.97
-48.07
-56.11
-62.67
-66.19
-65.47
-60.07
-50.49
-37.97
-24.09
-10.38
2.04
12.52
20.84
27.00
31.15
33.49
34.27
33.83
32.54
30.81
29.07
27.69
26.97
27.03
27.74
28.75
29.60
29.90
29.46
28.37
26.87
25.18
23.37
21.26
18.56
14.98
10.40
4.92
-1.18
-7.47
-13.55
-19.14
-24.14
-28.59
-32.75
-37.02
-41.85
-47.64
-54.57
-62.34
-70.04
-76.27
-79.41
-78.15
-71.97
-61.41
-47.87
-33.21
-19.17
-6.92
3.00
10.59
16.16
20.09
22.74
24.42
25.40
25.88
26.05
26.10
26.20
26.54
27.21
28.17
29.21
30.06
30.39
30.07
29.11
27.68
25.98
24.08
21.93
19.33
16.10
12.11
7.38
2.03
-3.72
-9.56
-15.17
-20.27
-24.66
-28.32
-31.50
-34.67
-38.42
-43.20
-49.02
-55.31
-60.92
-64.44
-64.57
-60.65
-52.80
-41.91
-29.36
-16.54
-4.58
5.89
14.67
21.84
27.54
31.87
34.92
36.79
37.65
37.75
37.42
36.96
36.63
36.58
36.90
37.55
38.46
39.50
40.51
41.30
41.70
41.49
40.50
38.56
35.62
31.82
27.43
22.82
18.33
14.07
10.00
5.91
1.67
-2.72
-7.12
-11.31
-15.16
-18.78
-22.51
-26.83
-32.20
-38.79
-46.30
-53.77
-59.86
-63.05
-62.25
-57.17
-48.44
-37.40
-25.62
-14.39
-4.41
4.09
11.20
16.92
21.13
23.69
24.55
23.97
22.45
20.59
18.91
17.75
17.20
17.24
17.73
18.48
19.32
20.08
20.55
20.60
20.12
19.03
17.33
15.04
12.18
8.82
5.05
1.02
-3.07
-7.01
-10.70
-14.20
-17.70
-21.43
-25.67
-30.60
-36.27
-42.54
-48.98
-54.84
-59.08
-60.61
-58.56
-52.66
-43.42
-31.99
-19.86
-8.36
1.70
10.04
16.80
22.23
26.47
29.50
31.18
31.47
30.57
28.92
27.10
25.70
25.07
25.22
25.91
26.70
27.22
27.30
26.98
26.38
25.59
24.51
22.89
20.52
17.26
13.22
8.68
3.95
-0.65
-4.93
-8.83
-12.37
-15.78
-19.40
-23.71
-29.11
-35.73
-43.25
-50.81
-57.24
-61.26
-61.87
-58.68
-51.94
-42.55
-31.76
-20.84
-10.81
-2.23
4.75
10.30
14.74
18.38
21.43
23.95
25.89
27.20
27.84
27.88
27.51
26.92
26.37
26.04
26.05
26.43
27.07
27.73
28.06
27.70
26.37
23.98
20.64
16.60
12.22
7.81
3.61
-0.21
-3.61
-6.68
-9.62
-12.62
-15.91
-19.54
-23.46
-27.64
-32.09
-37.03
-42.68
-49.09
-55.84
-61.99
-66.29
-67.47
-64.77
-58.19
-48.52
-37.09
-25.38
-14.65
-5.64
1.41
6.70
10.62
13.56
15.77
17.42
18.53
19.20
19.54
19.67
19.73
19.81
20.03
20.48
21.29
22.51
24.14
26.01
27.83
29.19
29.72
29.18
27.53
25.00
21.96
18.79
15.76
12.88
10.02
6.96
3.62
0.05
-3.56
-7.05
-10.41
-13.84
-17.62
-22.01
-27.14
-32.92
-39.00
-44.71
-49.13
-51.24
-50.10
-45.28
-37.02
-26.28
-14.49
-3.06
6.95
15.10
21.49
26.49
30.43
33.50
35.70
36.94
37.21
36.61
35.38
33.80
32.14
30.58
29.26
28.18
27.24
26.23
24.86
22.88
20.14
16.69
12.64
8.15
3.19
-2.46
-9.02
-16.56
-24.80
-33.14
-40.85
-47.42
-52.81
-57.53
-62.43
-68.46
-76.30
-86.20
-97.85
-110.33
-121.99
-130.51
-133.21
-127.73
-112.99
-89.84
-61.19
-31.18
-3.94
17.70
32.93
42.70
48.90
53.35
57.15
60.64
63.78
66.55
69.12
71.71
74.32
76.66
78.16
78.28
76.81
73.99
70.43
66.85
63.80
61.39
59.34
57.04
53.88
49.45
43.69
36.91
29.65
22.44
15.66
9.40
3.52
-2.33
-8.52
-15.29
-22.62
-30.12
-36.99
-42.11
-44.36
-42.91
-37.55
-28.82
-17.82
-5.83
6.06
17.13
26.98
35.30
41.70
45.75
47.22
46.25
43.45
39.74
35.95
32.65
29.89
27.46
24.98
22.21
19.09
15.72
12.29
8.99
5.96
3.27
0.89
-1.35
-3.66
-6.27
-9.31
-12.78
-16.49
-20.20
-23.71
-26.96
-30.06
-33.28
-36.95
-41.37
-46.67
-52.68
-58.83
-64.16
-67.53
-67.89
-64.69
-58.10
-48.99
-38.64
-28.33
-19.02
-11.10
-4.56
0.87
5.42
9.19
12.16
14.28
15.50
15.88
15.52
14.61
13.42
12.18
11.14
10.45
10.18
10.28
10.64
11.05
11.31
11.17
10.40
8.83
6.32
2.96
-0.97
-5.05
-8.78
-11.77
-13.94
-15.50
-16.88
-18.65
-21.25
-24.88
-29.52
-34.90
-40.59
-46.04
-50.59
-53.47
-53.93
-51.48
-46.02
-38.04
-28.51
-18.61
-9.41
-1.54
4.85
9.99
14.13
17.37
19.61
20.72
20.70
19.89
18.73
17.68
16.92
16.44
16.12
15.89
15.80
15.98
16.47
17.14
17.70
17.80
17.16
15.61
13.09
9.61
5.36
0.64
-4.15
-8.60
-12.54
-16.05
-19.49
-23.38
-28.16
-34.08
-41.00
-48.36
-55.22
-60.46
-62.98
-62.08
-57.55
-49.83
-39.81
-28.68
-17.57
-7.32
1.60
9.11
15.37
20.59
24.88
28.23
30.57
31.92
32.43
32.38
32.07
31.70
31.34
31.01
30.74
30.58
30.58
30.64
30.59
30.21
29.36
28.03
26.29
24.23
21.81
18.89
15.37
11.18
6.46
1.45
-3.57
-8.43
-13.09
-17.70
-22.52
-27.85
-33.98
-40.98
-48.59
-56.11
-62.45
-66.31
-66.59
-62.72
-54.91
-44.16
-31.95
-19.86
-9.05
-0.14
6.85
12.27
16.48
19.75
22.20
23.90
25.02
25.74
26.34
27.03
27.86
28.80
29.77
30.63
31.29
31.70
31.79
31.54
30.90
29.88
28.47
26.63
24.29
21.38
17.88
13.83
9.35
4.66
-0.07
-4.68
-9.08
-13.27
-17.36
-21.57
-26.24
-31.71
-38.14
-45.38
-52.80
-59.37
-63.84
-65.07
-62.37
-55.70
-45.71
-33.54
-20.48
-7.73
3.90
13.98
22.37
29.06
34.10
37.55
39.61
40.59
40.89
40.92
40.99
41.31
41.92
42.85
44.03
45.34
46.56
47.38
47.52
46.80
45.20
42.85
39.94
36.61
32.94
28.92
24.54
19.89
15.10
10.39
5.95
1.95
-1.55
-4.60
-7.40
-10.24
-13.61
-18.01
-23.85
-31.28
-39.86
-48.61
-56.09
-60.83
-61.74
-58.51
-51.70
-42.50
-32.36
-22.55
-13.93
-6.81
-1.12
3.38
6.89
9.52
11.29
12.21
12.47
12.36
12.31
12.60
13.35
14.44
15.59
16.57
17.24
17.65
17.94
18.22
18.52
18.73
18.64
18.01
16.63
14.36
11.20
7.23
2.72
-2.05
-6.78
-11.25
-15.35
-19.15
-22.89
-26.91
-31.66
-37.41
-44.11
-51.18
-57.54
-61.80
-62.64
-59.29
-51.78
-40.94
-28.15
-14.90
-2.41
8.57
17.74
25.03
30.43
33.90
35.48
35.40
34.13
32.30
30.56
29.35
28.83
28.95
29.48
30.22
30.94
31.47
31.65
31.34
30.41
28.79
26.40
23.22
19.27
14.63
9.55
4.39
-0.50
-4.89
-8.82
-12.61
-16.79
-21.88
-28.26
-35.92
-44.45
-53.03
-60.51
-65.70
-67.60
-65.62
-59.79
-50.78
-39.62
-27.54
-15.61
-4.60
5.04
13.10
19.48
24.06
26.82
27.85
27.43
26.05
24.23
22.39
20.80
19.59
18.82
18.55
18.83
19.61
20.72
21.79
22.37
22.04
20.41
17.29
12.74
7.04
0.70
-5.66
-11.50
-16.54
-20.94
-25.23
-30.15
-36.36
-44.11
-53.01
-61.99
-69.42
-73.62
-73.23
-67.74
-57.66
-44.32
-29.51
-14.90
-1.72
9.46
18.57
25.83
31.48
35.68
38.58
40.35
41.27
41.67
41.78
41.75
41.59
41.25
40.75
40.22
39.87
39.84
40.06
40.20
39.76
38.23
35.30
30.95
25.47
19.27
12.82
6.40
0.17
-5.95
-12.23
-19.03
-26.65
-35.12
-44.05
-52.53
-59.23
-62.73
-61.90
-56.32
-46.43
-33.42
-18.93
-4.52
8.63
19.89
29.05
36.13
41.19
44.30
45.60
45.40
44.20
42.61
41.17
40.19
39.75
39.73
40.00
40.42
40.88
41.26
41.34
40.87
39.56
37.18
33.59
28.84
23.13
16.86
10.48
4.36
-1.40
-7.06
-13.21
-20.54
-29.46
-39.73
-50.36
-59.65
-65.73
-67.04
-62.92
-53.71
-40.72
-25.77
-10.70
3.08
14.79
24.24
31.60
37.16
41.15
43.73
45.02
45.20
44.56
43.47
42.30
41.38
40.87
40.79
41.06
41.54
42.06
42.47
42.68
42.58
42.02
40.84
38.81
35.74
31.53
26.22
20.05
13.38
6.60
0.02
-6.16
-11.89
-17.28
-22.58
-28.16
-34.48
-41.88
-50.36
-59.38
-67.73
-73.83
-76.09
-73.45
-65.72
-53.71
-38.89
-23.01
-7.61
6.21
17.86
27.04
33.71
37.91
39.86
39.94
38.80
37.14
35.62
34.64
34.23
34.24
34.40
34.46
34.33
34.06
33.71
33.32
32.77
31.82
30.07
27.10
22.65
16.80
9.97
2.81
-3.95
-9.90
-15.01
-19.69
-24.55
-30.20
-36.92
-44.55
-52.51
-59.76
-65.09
-67.32
-65.56
-59.55
-49.70
-37.06
-23.04
-9.06
3.81
14.86
23.81
30.64
35.41
38.28
39.50
39.43
38.57
37.46
36.58
36.21
36.37
36.87
37.43
37.80
37.80
37.37
36.53
35.28
33.54
31.15
27.92
23.72
18.55
12.53
5.95
-0.78
-7.25
-13.17
-18.51
-23.59
-29.03
-35.60
-43.82
-53.62
-64.20
-74.08
-81.50
-84.87
-83.29
-76.70
-65.90
-52.26
-37.38
-22.77
-9.54
1.69
10.77
17.87
23.32
27.43
30.41
32.45
33.70
34.43
34.90
35.39
35.98
36.65
37.29
37.79
38.14
38.35
38.45
38.31
37.70
36.34
33.94
30.40
25.78
20.25
14.14
7.72
1.28
-5.03
-11.12
-17.02
-22.87
-28.89
-35.42
-42.71
-50.88
-59.66
-68.32
-75.55
-79.85
-79.85
-74.86
-65.13
-51.85
-36.77
-21.67
-7.91
3.83
13.46
21.19
27.24
31.70
34.52
35.76
35.64
34.64
33.32
32.21
31.58
31.45
31.62
31.84
31.91
31.78
31.55
31.34
31.18
30.94
30.33
28.96
26.53
22.92
18.20
12.66
6.70
0.76
-4.73
-9.49
-13.49
-17.00
-20.56
-24.85
-30.42
-37.47
-45.65
-54.10
-61.57
-66.68
-68.23
-65.47
-58.30
-47.40
-34.07
-19.89
-6.38
5.41
14.97
22.20
27.20
30.09
31.06
30.39
28.65
26.55
24.83
23.96
24.03
24.78
25.77
26.56
26.88
26.64
25.92
24.83
23.44
21.77
19.65
16.87
13.23
8.73
3.57
-1.87
-7.23
-12.33
-17.22
-22.16
-27.46
-33.42
-40.20
-47.78
-55.84
-63.63
-70.03
-73.76
-73.73
-69.46
-61.26
-50.19
-37.64
-24.94
-13.02
-2.31
7.11
15.27
22.16
27.68
31.70
34.15
35.12
34.89
33.90
32.64
31.53
30.85
30.62
30.71
30.85
30.78
30.30
29.34
27.92
26.11
23.94
21.38
18.26
14.44
9.86
4.65
-0.83
-6.21
-11.18
-15.69
-20.00
-24.57
-29.92
-36.37
-43.94
-52.20
-60.36
-67.27
-71.71
-72.63
-69.47
-62.31
-51.89
-39.43
-26.27
-13.60
-2.20
7.56
15.70
22.38
27.82
32.18
35.55
38.03
39.71
40.71
41.20
41.38
41.44
41.58
41.93
42.58
43.53
44.68
45.80
46.55
46.62
45.77
43.90
41.09
37.54
33.50
29.22
24.88
20.54
16.15
11.53
6.56
1.16
-4.57
-10.40
-16.07
-21.40
-26.46
-31.57
-37.22
-43.81
-51.42
-59.58
-67.26
-73.16
-75.99
-74.89
-69.72
-61.09
-50.11
-38.08
-26.14
-15.11
-5.44
2.61
8.87
13.27
15.85
16.82
16.58
15.60
14.34
13.13
12.17
11.51
11.16
11.12
11.37
11.95
12.85
13.95
15.03
15.69
15.45
13.91
10.85
6.48
1.34
-3.86
-8.51
-12.37
-15.62
-18.76
-22.43
-27.12
-33.10
-40.19
-47.79
-54.88
-60.08
-62.03
-59.75
-53.02
-42.55
-29.83
-16.58
-4.35
5.97
14.11
20.24
24.62
27.41
28.69
28.59
27.43
25.70
23.93
22.51
21.55
20.92
20.40
19.82
19.18
18.54
17.93
17.22
16.13
14.33
11.56
7.83
3.34
-1.56
-6.55
-11.37
-15.99
-20.48
-25.02
-29.92
-35.54
-42.25
-50.22
-59.22
-68.38
-76.31
-81.33
-82.05
-77.82
-68.97
-56.78
-42.94
-29.15
-16.57
-5.73
3.42
11.18
17.83
23.53
28.23
31.81
34.23
35.60
36.19
36.44
36.73
37.28
38.11
39.03
39.79
40.21
40.23
39.86
39.12
37.88
35.85
32.74
28.39
22.91
16.72
10.38
4.41
-0.91
-5.62
-10.08
-14.83
-20.41
-27.22
-35.34
-44.42
-53.62
-61.73
-67.31
-69.11
-66.38
-59.12
-48.19
-35.10
-21.52
-8.91
1.90
10.72
17.87
23.79
28.86
33.20
36.77
39.45
41.21
42.13
42.37
42.19
41.83
41.50
41.37
41.51
41.89
42.33
42.56
42.28
41.30
39.50
36.96
33.78
30.05
25.77
20.94
15.61
9.87
3.96
-1.88
-7.48
-12.76
-17.76
-22.61
-27.50
-32.73
-38.66
-45.67
-53.85
-62.78
-71.43
-78.29
-81.79
-80.74
-74.80
-64.56
-51.35
-36.82
-22.50
-9.47
1.73
10.98
18.38
24.14
28.49
31.66
33.91
35.50
36.64
37.38
37.70
37.61
37.23
36.84
36.79
37.33
38.38
39.59
40.48
40.64
39.84
38.09
35.50
32.16
28.17
23.58
18.53
13.14
7.62
2.09
-3.33
-8.57
-13.50
-18.05
-22.19
-26.15
-30.28
-35.11
-41.07
-48.29
-56.38
-64.45
-71.10
-74.79
-74.27
-68.96
-59.17
-46.06
-31.35
-16.83
-3.91
6.65
14.76
20.78
25.25
28.55
30.87
32.17
32.52
32.12
31.43
30.97
31.08
31.75
32.66
33.44
33.83
33.88
33.87
34.05
34.45
34.69
34.20
32.34
28.78
23.56
17.14
10.16
3.33
-2.86
-8.27
-13.08
-17.75
-22.86
-28.88
-36.06
-44.21
-52.70
-60.44
-66.10
-68.39
-66.43
-59.98
-49.60
-36.52
-22.28
-8.40
3.99
14.31
22.41
28.48
32.80
35.62
37.11
37.45
36.91
35.83
34.63
33.69
33.26
33.38
33.95
34.71
35.33
35.54
35.03
33.68
31.45
28.47
24.97
21.19
17.33
13.40
9.32
4.95
0.22
-4.83
-10.02
-15.13
-20.01
-24.66
-29.26
-34.15
-39.69
-46.20
-53.82
-62.33
-71.12
-79.03
-84.63
-86.49
-83.65
-75.97
-64.19
-49.75
-34.35
-19.49
-6.23
4.94
13.94
20.95
26.24
30.05
32.60
34.09
34.77
34.94
34.96
35.11
35.59
36.44
37.53
38.75
39.98
41.18
42.32
43.26
43.71
43.32
41.83
39.15
35.49
31.28
27.04
23.18
19.84
16.87
13.85
10.29
5.84
0.47
-5.53
-11.66
-17.39
-22.38
-26.67
-30.60
-34.78
-39.85
-46.24
-54.02
-62.65
-71.08
-77.87
-81.47
-80.72
-75.10
-64.99
-51.58
-36.56
-21.66
-8.22
3.04
12.05
19.12
24.71
29.13
32.47
34.74
35.97
36.37
36.35
36.37
36.79
37.77
39.19
40.77
42.21
43.32
44.02
44.37
44.41
44.10
43.36
41.97
39.80
36.80
33.11
28.98
24.73
20.62
16.74
13.06
9.43
5.67
1.65
-2.69
-7.31
-12.06
-16.80
-21.45
-25.97
-30.48
-35.21
-40.46
-46.49
-53.34
-60.66
-67.64
-73.09
-75.64
-74.22
-68.35
-58.42
-45.56
-31.37
-17.44
-4.95
5.51
13.87
20.36
25.31
28.97
31.52
33.08
33.84
33.96
33.63
33.06
32.46
32.07
32.12
32.71
33.79
35.11
36.36
37.23
37.47
36.94
35.61
33.41
30.32
26.39
21.79
16.77
11.66
6.75
2.17
-2.04
-5.91
-9.54
-13.03
-16.54
-20.30
-24.64
-29.85
-36.10
-43.20
-50.55
-57.06
-61.40
-62.31
-59.05
-51.68
-41.10
-28.77
-16.28
-4.88
4.77
12.51
18.55
23.10
26.29
28.12
28.58
27.82
26.16
24.05
21.99
20.40
19.56
19.59
20.42
21.82
23.42
24.83
25.68
25.72
24.85
23.10
20.57
17.39
13.66
9.51
5.05
0.46
-4.10
-8.48
-12.63
-16.59
-20.44
-24.31
-28.30
-32.58
-37.39
-42.99
-49.59
-57.08
-64.90
-71.96
-76.81
-78.07
-74.92
-67.28
-56.00
-42.51
-28.43
-15.16
-3.61
5.83
13.19
18.76
22.92
26.04
28.43
30.28
31.67
32.66
33.32
33.72
34.00
34.32
34.73
35.26
35.81
36.24
36.38
36.07
35.19
33.64
31.35
28.30
24.56
20.30
15.75
11.15
6.63
2.23
-2.12
-6.47
-10.80
-14.99
-18.93
-22.64
-26.31
-30.34
-35.19
-41.16
-48.22
-55.86
-63.04
-68.39
-70.52
-68.39
-61.80
-51.42
-38.68
-25.25
-12.54
-1.37
8.02
15.78
22.14
27.15
30.81
33.10
34.12
34.14
33.51
32.55
31.54
30.70
30.21
30.25
30.88
32.05
33.52
34.95
35.93
36.12
35.30
33.41
30.59
27.09
23.21
19.21
15.25
11.34
7.39
3.30
-0.96
-5.32
-9.68
-13.93
-18.09
-22.31
-26.84
-31.93
-37.76
-44.36
-51.50
-58.67
-65.00
-69.40
-70.79
-68.36
-61.97
-52.20
-40.24
-27.53
-15.29
-4.32
5.12
13.04
19.50
24.47
27.89
29.72
30.17
29.70
28.87
28.19
27.95
28.19
28.75
29.44
30.14
30.91
31.80
32.82
33.75
34.18
33.65
31.81
28.62
24.35
19.56
14.79
10.49
6.78
3.53
0.43
-2.83
-6.45
-10.45
-14.66
-18.86
-22.87
-26.67
-30.34
-34.19
-38.56
-43.85
-50.20
-57.36
-64.58
-70.62
-74.02
-73.56
-68.67
-59.62
-47.55
-34.01
-20.61
-8.53
1.62
9.76
16.10
20.90
24.32
26.39
27.16
26.82
25.70
24.31
23.05
22.14
21.59
21.24
20.96
20.71
20.59
20.63
20.79
20.89
20.73
20.23
19.41
18.32
16.97
15.25
13.05
10.31
7.08
3.52
-0.26
-4.12
-7.97
-11.67
-15.04
-17.91
-20.25
-22.27
-24.45
-27.38
-31.51
-36.89
-43.00
-48.72
-52.64
-53.40
-50.13
-42.72
-31.88
-18.87
-5.19
7.84
19.17
28.15
34.41
37.87
38.77
37.71
35.60
33.58
32.72
33.77
36.95
41.84
47.58
53.09
57.40
59.99
60.83
60.32
59.08
57.65
56.33
55.09
53.66
51.71
48.91
45.09
40.33
34.93
29.39
24.30
20.14
17.04
14.77
12.69
9.99
6.00
0.48
-6.20
-13.07
-18.79
-22.06
-21.95
-18.18
-11.18
-1.90
8.41
18.47
27.26
33.96
38.12
39.63
38.78
36.24
32.92
29.71
27.25
25.69
24.69
23.66
22.01
19.46
16.13
12.43
8.82
5.55
2.59
-0.46
-4.14
-8.99
-15.32
-23.08
-31.82
-40.78
-49.15
-56.38
-62.39
-67.57
-72.60
-78.04
-83.94
-89.70
-94.15
-96.01
-94.23
-88.44
-78.91
-66.59
-52.69
-38.49
-25.13
-13.47
-4.00
3.17
8.30
11.89
14.38
16.03
16.79
16.39
14.65
11.67
7.87
3.94
0.48
-2.16
-3.89
-4.84
-5.17
-5.12
-4.97
-5.16
-6.20
-8.47
-12.00
-16.43
-21.15
-25.58
-29.39
-32.62
-35.68
-39.13
-43.50
-49.03
-55.53
-62.23
-67.86
-70.88
-69.86
-64.01
-53.48
-39.42
-23.60
-7.90
6.21
17.93
27.13
34.10
39.23
42.86
45.23
46.52
46.90
46.62
45.93
45.00
43.90
42.59
41.05
39.36
37.73
36.52
35.99
36.20
36.88
37.45
37.25
35.78
32.87
28.72
23.68
18.10
12.09
5.51
-1.91
-10.34
-19.70
-29.51
-38.94
-46.89
-52.24
-54.06
-51.93
-46.01
-37.12
-26.51
-15.50
-5.14
4.01
11.86
18.62
24.56
29.75
34.13
37.49
39.68
40.66
40.60
39.74
38.43
36.98
35.67
34.68
34.07
33.80
33.76
33.76
33.57
32.93
31.57
29.29
25.93
21.54
16.45
11.14
6.14
1.84
-1.75
-4.98
-8.45
-12.79
-18.46
-25.53
-33.69
-42.21
-50.03
-55.96
-58.85
-57.90
-52.86
-44.18
-32.84
-20.11
-7.21
4.89
15.63
24.71
32.01
37.46
41.03
42.72
42.63
40.97
38.01
34.05
29.38
24.29
19.08
14.06
9.55
5.85
3.14
1.37
0.30
-0.51
-1.56
-3.28
-5.91
-9.45
-13.72
-18.41
-23.18
-27.70
-31.72
-35.13
-37.94
-40.35
-42.70
-45.43
-48.90
-53.35
-58.63
-64.14
-68.86
-71.54
-70.96
-66.35
-57.64
-45.53
-31.32
-16.54
-2.57
9.63
19.69
27.66
33.85
38.60
42.11
44.43
45.64
45.86
45.37
44.51
43.58
42.65
41.61
40.23
38.42
36.29
34.20
32.45
31.21
30.33
29.34
27.71
25.03
21.15
16.23
10.62
4.78
-0.86
-6.06
-10.77
-15.21
-19.78
-24.97
-31.06
-37.98
-45.06
-51.16
-54.88
-54.97
-50.76
-42.40
-30.86
-17.68
-4.46
7.51
17.52
25.45
31.53
36.15
39.57
41.94
43.32
43.77
43.42
42.46
41.14
39.66
38.19
36.78
35.43
34.08
32.64
31.04
29.24
27.24
25.01
22.50
19.59
16.12
11.99
7.26
2.13
-3.12
-8.20
-12.91
-17.25
-21.33
-25.32
-29.55
-34.32
-39.94
-46.61
-54.18
-62.03
-69.03
-73.83
-75.19
-72.43
-65.67
-55.77
-43.99
-31.62
-19.64
-8.59
1.30
9.93
17.20
23.01
27.28
30.10
31.76
32.63
33.04
33.23
33.21
32.91
32.27
31.41
30.58
30.13
30.27
30.89
31.62
31.89
31.24
29.50
26.89
23.80
20.61
17.44
14.20
10.63
6.54
1.88
-3.17
-8.33
-13.33
-17.99
-22.29
-26.28
-30.07
-33.85
-37.91
-42.56
-48.08
-54.43
-61.05
-66.87
-70.47
-70.46
-66.04
-57.28
-45.16
-31.30
-17.43
-4.95
5.38
13.43
19.52
24.14
27.71
30.52
32.73
34.40
35.61
36.35
36.66
36.61
36.28
35.78
35.23
34.71
34.27
33.88
33.48
33.04
32.45
31.59
30.31
28.45
25.94
22.86
19.39
15.69
11.83
7.75
3.30
-1.57
-6.76
-11.95
-16.72
-20.75
-23.93
-26.49
-28.93
-31.89
-35.97
-41.47
-48.26
-55.65
-62.47
-67.28
-68.73
-65.98
-58.95
-48.44
-35.88
-22.90
-10.95
-0.95
6.76
12.33
16.19
18.83
20.71
22.16
23.37
24.38
25.10
25.38
25.12
24.29
23.06
21.69
20.46
19.53
18.95
18.57
18.26
17.88
17.32
16.55
15.51
14.07
12.07
9.45
6.22
2.57
-1.25
-4.99
-8.48
-11.73
-14.77
-17.71
-20.65
-23.81
-27.49
-32.05
-37.68
-44.22
-51.05
-57.10
-61.11
-61.98
-59.09
-52.50
-42.91
-31.49
-19.58
-8.37
1.34
9.20
15.23
19.66
22.76
24.71
25.65
25.79
25.39
24.83
24.38
24.15
24.00
23.70
23.08
22.11
20.98
19.91
19.09
18.52
18.12
17.69
16.96
15.69
13.60
10.53
6.49
1.73
-3.34
-8.23
-12.58
-16.29
-19.60
-23.01
-27.09
-32.31
-38.75
-46.01
-53.15
-58.88
-61.91
-61.32
-56.88
-49.04
-38.84
-27.55
-16.34
-6.09
2.70
9.84
15.38
19.44
22.20
23.82
24.44
24.29
23.63
22.87
22.37
22.37
22.83
23.49
23.95
23.89
23.18
21.89
20.27
18.59
16.94
15.23
13.24
10.69
7.42
3.48
-0.91
-5.40
-9.74
-13.87
-17.97
-22.36
-27.41
-33.32
-40.04
-47.20
-54.13
-59.86
-63.33
-63.57
-60.10
-53.01
-43.08
-31.50
-19.57
-8.31
1.63
10.05
17.06
22.80
27.40
30.87
33.16
34.22
34.13
33.15
31.70
30.23
29.12
28.47
28.12
27.78
27.18
26.30
25.23
24.14
23.10
22.03
20.68
18.85
16.38
13.24
9.46
5.17
0.53
-4.29
-9.19
-14.18
-19.40
-25.17
-31.75
-39.26
-47.46
-55.68
-62.89
-67.89
-69.59
-67.33
-61.15
-51.71
-40.21
-27.93
-15.97
-5.03
4.59
12.79
19.59
25.00
29.08
31.92
33.67
34.47
34.46
33.72
32.38
30.68
28.93
27.54
26.75
26.68
27.20
28.01
28.68
28.82
28.15
26.56
24.12
20.97
17.27
13.12
8.61
3.80
-1.21
-6.26
-11.29
-16.27
-21.31
-26.62
-32.45
-39.05
-46.48
-54.48
-62.37
-69.07
-73.28
-73.84
-70.12
-62.24
-51.05
-37.83
-23.95
-10.55
1.62
12.19
21.04
28.23
33.92
38.32
41.66
44.07
45.69
46.60
46.91
46.80
46.43
46.01
45.68
45.51
45.51
45.63
45.78
45.88
45.78
45.29
44.18
42.18
39.10
34.90
29.75
24.01
18.12
12.39
6.92
1.60
-3.80
-9.47
-15.53
-22.06
-29.19
-37.10
-45.85
-55.08
-63.87
-70.82
-74.40
-73.47
-67.73
-57.84
-45.18
-31.42
-17.95
-5.75
4.80
13.61
20.80
26.47
30.72
33.63
35.32
36.01
35.93
35.34
34.44
33.38
32.22
30.98
29.69
28.39
27.20
26.21
25.48
24.94
24.35
23.33
21.42
18.25
13.65
7.77
1.05
-5.85
-12.27
-17.75
-22.17
-25.86
-29.46
-33.83
-39.69
-47.42
-56.78
-66.80
-75.92
-82.32
-84.45
-81.47
-73.55
-61.76
-47.67
-32.96
-18.96
-6.43
4.34
13.41
21.01
27.34
32.51
36.60
39.64
41.70
42.90
43.45
43.57
43.55
43.63
44.00
44.73
45.73
46.80
47.62
47.86
47.31
45.88
43.63
40.66
37.10
33.00
28.36
23.19
17.58
11.72
5.84
0.13
-5.32
-10.56
-15.79
-21.26
-27.26
-34.06
-41.90
-50.86
-60.67
-70.56
-79.26
-85.18
-86.82
-83.31
-74.67
-61.97
-46.92
-31.37
-16.78
-3.99
6.90
16.15
24.17
31.21
37.32
42.37
46.18
48.74
50.17
50.76
50.84
50.71
50.61
50.70
51.09
51.87
53.04
54.47
55.93
57.03
57.37
56.57
54.46
51.09
46.69
41.66
36.50
31.61
27.26
23.47
19.99
16.38
12.20
7.11
1.08
-5.62
-12.53
-19.18
-25.32
-30.92
-36.23
-41.66
-47.66
-54.58
-62.51
-71.14
-79.65
-86.71
-90.75
-90.45
-85.10
-74.95
-61.15
-45.39
-29.41
-14.55
-1.51
9.54
18.82
26.61
33.14
38.49
42.71
45.81
47.88
49.04
49.49
49.48
49.25
49.00
48.87
48.92
49.16
49.57
50.09
50.64
51.01
50.90
50.04
48.24
45.54
42.18
38.47
34.72
31.03
27.36
23.52
19.40
14.92
10.13
5.14
0.04
-5.06
-10.06
-14.91
-19.67
-24.55
-29.92
-36.21
-43.70
-52.38
-61.78
-70.91
-78.46
-83.02
-83.49
-79.42
-71.12
-59.67
-46.50
-33.10
-20.56
-9.49
-0.02
7.93
14.51
19.80
23.79
26.45
27.80
27.96
27.15
25.77
24.34
23.36
23.23
24.08
25.71
27.72
29.62
31.00
31.64
31.45
30.37
28.36
25.38
21.39
16.51
11.04
5.41
0.11
-4.49
-8.30
-11.52
-14.59
-18.03
-22.31
-27.68
-34.24
-41.79
-49.87
-57.71
-64.17
-67.95
-67.91
-63.41
-54.66
-42.71
-29.12
-15.55
-3.21
7.34
16.11
23.41
29.49
34.32
37.66
39.30
39.23
37.85
35.79
33.71
32.10
31.08
30.55
30.24
29.97
29.66
29.31
28.93
28.45
27.70
26.41
24.27
21.05
16.66
11.23
5.11
-1.16
-7.05
-12.17
-16.51
-20.37
-24.37
-29.25
-35.60
-43.69
-53.26
-63.49
-73.08
-80.44
-84.11
-83.05
-76.99
-66.49
-52.81
-37.69
-22.75
-9.25
2.18
11.53
19.21
25.77
31.57
36.77
41.22
44.64
46.77
47.52
47.06
45.77
44.19
42.80
41.94
41.68
41.84
42.06
41.95
41.25
39.83
37.76
35.17
32.17
28.77
24.95
20.62
15.77
10.50
5.00
-0.40
-5.41
-9.92
-14.00
-17.99
-22.37
-27.64
-34.15
-41.96
-50.68
-59.44
-66.89
-71.47
-71.80
-67.09
-57.56
-44.37
-29.31
-14.23
-0.48
11.27
21.04
29.17
35.95
41.49
45.65
48.26
49.26
48.81
47.20
44.78
41.87
38.76
35.78
33.28
31.58
30.91
31.23
32.27
33.64
34.95
35.86
36.11
35.49
33.76
30.84
26.84
22.12
17.24
12.66
8.56
4.73
0.74
-3.82
-9.03
-14.66
-20.29
-25.56
-30.36
-34.92
-39.59
-44.76
-50.69
-57.48
-65.04
-73.04
-80.80
-87.28
-91.16
-91.20
-86.65
-77.56
-64.81
-49.89
-34.47
-19.89
-7.00
3.88
12.80
20.01
25.72
30.11
33.29
35.39
36.54
36.93
36.81
36.46
36.18
36.14
36.43
36.97
37.62
38.16
38.42
38.32
37.80
36.86
35.44
33.47
30.86
27.60
23.81
19.76
15.77
12.09
8.77
5.58
2.13
-1.95
-6.79
-12.27
-17.99
-23.52
-28.53
-32.90
-36.74
-40.28
-43.84
-47.87
-52.80
-58.99
-66.51
-74.85
-82.89
-89.04
-91.67
-89.62
-82.63
-71.44
-57.54
-42.70
-28.48
-15.84
-5.17
3.67
10.98
17.08
22.19
26.44
29.89
32.59
34.59
35.88
36.53
36.62
36.33
35.91
35.65
35.75
36.32
37.30
38.51
39.65
40.34
40.22
39.03
36.68
33.27
29.09
24.52
19.94
15.64
11.76
8.30
5.09
1.87
-1.61
-5.49
-9.77
-14.33
-18.95
-23.46
-27.79
-32.03
-36.44
-41.40
-47.25
-54.07
-61.52
-68.73
-74.44
-77.26
-76.11
-70.56
-60.98
-48.45
-34.43
-20.36
-7.35
3.93
13.27
20.75
26.58
30.96
34.01
35.82
36.48
36.13
35.05
33.61
32.18
31.14
30.68
30.85
31.56
32.53
33.46
34.05
34.07
33.36
31.89
29.72
27.01
24.00
20.87
17.68
14.32
10.59
6.28
1.39
-3.92
-9.33
-14.50
-19.33
-23.96
-28.80
-34.31
-40.76
-47.98
-55.30
-61.61
-65.63
-66.24
-62.79
-55.40
-44.81
-32.22
-18.98
-6.32
4.94
14.40
22.00
27.96
32.49
35.79
37.92
38.87
38.70
37.61
35.95
34.13
32.54
31.37
30.68
30.39
30.44
30.72
31.10
31.33
31.06
29.93
27.74
24.53
20.65
16.51
12.51
8.80
5.27
1.65
-2.32
-6.79
-11.71
-16.86
-22.00
-26.94
-31.65
-36.35
-41.35
-47.01
-53.53
-60.66
-67.72
-73.54
-76.77
-76.25
-71.43
-62.55
-50.57
-36.98
-23.21
-10.46
0.63
9.82
17.18
22.88
27.07
29.93
31.59
32.31
32.37
32.09
31.65
31.19
30.76
30.37
30.13
30.22
30.77
31.77
32.95
33.84
33.89
32.75
30.41
27.25
23.75
20.36
17.18
14.01
10.49
6.33
1.43
-4.10
-10.00
-16.00
-21.85
-27.43
-32.66
-37.68
-42.80
-48.50
-55.24
-63.19
-71.95
-80.48
-87.26
-90.69
-89.64
-83.78
-73.71
-60.74
-46.47
-32.39
-19.51
-8.26
1.36
9.60
16.71
22.81
27.95
32.12
35.34
37.69
39.28
40.24
40.72
40.81
40.65
40.30
39.79
39.11
38.20
37.02
35.60
33.99
32.28
30.52
28.69
26.74
24.56
22.13
19.44
16.55
13.51
10.32
6.90
3.05
-1.48
-6.90
-13.39
-20.94
-29.29
-37.84
-45.64
-51.49
-54.19
-52.85
-47.17
-37.67
-25.45
-11.99
1.25
13.18
23.17
31.00
36.72
40.50
42.54
43.05
42.26
40.43
37.88
34.98
32.12
29.65
27.82
26.72
26.31
26.44
26.90
27.49
28.01
28.18
27.64
26.02
23.07
18.84
13.67
8.22
3.18
-1.00
-4.25
-6.91
-9.59
-12.96
-17.51
-23.41
-30.45
-38.03
-45.16
-50.64
-53.30
-52.30
-47.42
-39.15
-28.56
-17.00
-5.72
4.37
12.79
19.40
24.31
27.69
29.73
30.61
30.51
29.67
28.37
26.96
25.74
24.91
24.44
24.11
23.67
22.96
22.04
21.10
20.33
19.73
19.02
17.72
15.40
11.81
7.06
1.49
-4.43
-10.30
-15.88
-21.12
-26.18
-31.38
-37.05
-43.46
-50.58
-57.93
-64.53
-69.11
-70.39
-67.57
-60.58
-50.17
-37.69
-24.65
-12.28
-1.35
7.90
15.54
21.71
26.48
29.82
31.74
32.38
32.03
31.08
29.88
28.66
27.54
26.57
25.79
25.25
24.97
24.86
24.78
24.42
23.45
21.54
18.49
14.29
9.20
3.71
-1.64
-6.39
-10.42
-14.00
-17.70
-22.25
-28.19
-35.63
-44.03
-52.22
-58.60
-61.57
-60.00
-53.59
-42.97
-29.55
-15.02
-0.97
11.46
21.72
29.72
35.71
40.09
43.15
45.11
46.09
46.12
45.29
43.81
42.00
40.20
38.70
37.59
36.80
36.22
35.72
35.28
34.90
34.55
34.09
33.33
32.03
29.98
27.01
23.08
18.25
12.76
6.98
1.35
-3.75
-8.11
-11.83
-15.28
-19.01
-23.56
-29.27
-36.19
-43.91
-51.59
-58.04
-61.97
-62.30
-58.48
-50.70
-39.91
-27.48
-14.91
-3.37
6.45
14.43
20.72
25.62
29.40
32.18
34.05
35.11
35.51
35.38
34.82
33.87
32.57
31.00
29.38
28.04
27.29
27.22
27.62
28.04
27.87
26.69
24.37
21.17
17.61
14.22
11.35
9.01
6.96
4.79
2.14
-1.19
-5.21
-9.71
-14.35
-18.81
-22.82
-26.35
-29.58
-32.93
-36.94
-42.08
-48.55
-56.14
-64.04
-71.05
-75.74
-76.86
-73.67
-66.23
-55.40
-42.56
-29.30
-16.95
-6.33
2.29
9.08
14.36
18.40
21.36
23.35
24.51
25.06
25.28
25.40
25.49
25.56
25.52
25.34
25.03
24.73
24.58
24.62
24.74
24.77
24.41
23.45
21.76
19.33
16.23
12.56
8.43
3.96
-0.73
-5.51
-10.17
-14.52
-18.42
-21.87
-25.09
-28.51
-32.74
-38.28
-45.18
-52.82
-59.99
-65.08
-66.67
-64.02
-57.28
-47.37
-35.70
-23.66
-12.32
-2.34
6.03
12.80
18.12
22.26
25.41
27.78
29.51
30.71
31.52
32.09
32.55
32.94
33.22
33.30
33.14
32.83
32.54
32.43
32.57
32.79
32.84
32.40
31.21
29.17
26.36
22.95
19.20
15.37
11.63
8.08
4.71
1.38
-2.09
-5.84
-9.96
-14.30
-18.62
-22.61
-26.10
-29.15
-32.09
-35.45
-39.75
-45.30
-52.00
-59.30
-66.23
-71.58
-74.14
-72.97
-67.71
-58.69
-46.94
-33.97
-21.33
-10.21
-1.22
5.69
10.96
15.18
18.76
21.90
24.66
26.97
28.79
30.10
30.88
31.09
30.75
29.96
28.94
28.01
27.43
27.37
27.80
28.49
29.13
29.36
28.92
27.64
25.47
22.52
18.98
15.15
11.33
7.72
4.38
1.16
-2.17
-5.86
-9.95
-14.27
-18.47
-22.22
-25.45
-28.43
-31.72
-35.92
-41.40
-48.06
-55.26
-61.93
-66.82
-68.90
-67.51
-62.67
-54.95
-45.30
-34.83
-24.52
-15.11
-6.98
-0.24
5.20
9.51
12.90
15.50
17.38
18.50
18.84
18.47
17.54
16.41
15.43
14.90
15.00
15.70
16.80
18.02
19.02
19.55
19.42
18.54
16.92
14.61
11.73
8.47
4.98
1.43
-2.07
-5.41
-8.53
-11.37
-13.97
-16.46
-19.05
-22.04
-25.75
-30.33
-35.73
-41.53
-46.93
-50.86
-52.14
-49.90
-43.88
-34.65
-23.47
-11.94
-1.48
7.02
13.43
18.05
21.45
24.05
26.05
27.51
28.37
28.66
28.42
27.78
26.84
25.69
24.45
23.27
22.29
21.64
21.35
21.38
21.55
21.61
21.31
20.47
18.97
16.76
13.90
10.50
6.70
2.70
-1.32
-5.23
-8.97
-12.57
-16.07
-19.58
-23.27
-27.42
-32.37
-38.38
-45.44
-53.00
-59.99
-64.99
-66.63
-64.07
-57.33
-47.24
-35.24
-22.81
-11.14
-0.90
7.73
14.87
20.68
25.29
28.80
31.33
33.05
34.15
34.76
34.91
34.56
33.75
32.62
31.51
30.73
30.52
30.84
31.41
31.77
31.52
30.37
28.27
25.41
22.07
18.58
15.20
12.11
9.30
6.62
3.78
0.49
-3.40
-7.84
-12.60
-17.35
-21.87
-26.15
-30.42
-35.05
-40.38
-46.44
-52.86
-58.71
-62.74
-63.68
-60.66
-53.61
-43.31
-31.21
-18.93
-7.84
1.33
8.50
14.00
18.39
22.15
25.68
29.21
32.85
36.55
40.09
43.10
45.11
45.83
45.19
43.48
41.28
39.19
37.66
36.77
36.24
35.54
34.17
31.80
28.43
24.33
19.88
15.45
11.25
7.30
3.48
-0.38
-4.39
-8.52
-12.65
-16.61
-20.34
-23.99
-27.92
-32.60
-38.41
-45.46
-53.39
-61.44
-68.48
-73.31
-74.89
-72.63
-66.49
-57.08
-45.42
-32.75
-20.23
-8.71
1.34
9.73
16.50
21.75
25.70
28.57
30.63
32.05
32.95
33.30
33.10
32.38
31.41
30.55
30.19
30.50
31.39
32.44
33.20
33.29
32.68
31.52
30.02
28.30
26.27
23.70
20.43
16.41
11.80
6.90
1.99
-2.75
-7.17
-11.24
-14.97
-18.48
-22.05
-26.15
-31.27
-37.67
-45.15
-52.94
-59.78
-64.25
-65.17
-61.92
-54.68
-44.30
-32.12
-19.56
-7.78
2.48
10.98
17.76
23.05
27.08
30.04
32.03
33.17
33.54
33.26
32.46
31.31
30.00
28.79
27.92
27.52
27.57
27.99
28.54
29.01
29.18
28.85
27.82
25.93
23.06
19.28
14.76
9.81
4.77
-0.17
-4.90
-9.48
-14.07
-18.93
-24.42
-30.87
-38.52
-47.28
-56.56
-65.25
-71.91
-75.18
-74.11
-68.53
-59.05
-46.90
-33.56
-20.38
-8.35
2.03
10.66
17.69
23.31
27.71
31.02
33.32
34.74
35.43
35.56
35.36
35.00
34.66
34.40
34.22
34.03
33.74
33.26
32.62
31.87
31.05
30.09
28.77
26.72
23.65
19.45
14.30
8.56
2.76
-2.73
-7.70
-12.14
-16.22
-20.27
-24.73
-30.03
-36.59
-44.48
-53.33
-62.13
-69.39
-73.45
-73.05
-67.72
-58.02
-45.32
-31.40
-17.85
-5.76
4.45
12.87
19.82
25.56
30.27
33.99
36.76
38.68
39.91
40.58
40.81
40.65
40.16
39.46
38.75
38.27
38.23
38.63
39.29
39.81
39.77
38.87
37.03
34.39
31.23
27.72
23.92
19.73
15.04
9.89
4.45
-0.95
-6.09
-10.92
-15.64
-20.56
-26.04
-32.35
-39.62
-47.80
-56.56
-65.25
-72.82
-77.98
-79.54
-76.74
-69.56
-58.81
-45.83
-32.12
-18.92
-7.07
3.16
11.77
18.88
24.61
29.06
32.27
34.33
35.35
35.50
35.10
34.51
34.09
34.06
34.46
35.11
35.76
36.18
36.27
36.01
35.40
34.39
32.88
30.73
27.86
24.31
20.13
15.46
10.43
5.22
0.05
-4.82
-9.29
-13.41
-17.47
-21.97
-27.35
-33.91
-41.55
-49.71
-57.39
-63.26
-65.97
-64.54
-58.61
-48.67
-35.92
-22.01
-8.58
3.16
12.64
19.92
25.39
29.52
32.57
34.59
35.57
35.58
34.91
34.03
33.38
33.25
33.66
34.39
35.11
35.53
35.49
34.93
33.90
32.49
30.74
28.66
26.11
22.96
19.10
14.52
9.40
3.98
-1.47
-6.75
-11.74
-16.44
-20.92
-25.30
-29.83
-34.81
-40.58
-47.31
-54.75
-62.19
-68.41
-72.03
-71.88
-67.42
-58.88
-47.22
-33.83
-20.13
-7.22
4.19
13.80
21.63
27.77
32.42
35.76
38.01
39.40
40.16
40.53
40.73
40.88
41.02
41.14
41.25
41.40
41.70
42.19
42.85
43.48
43.78
43.39
42.02
39.60
36.27
32.38
28.31
24.40
20.78
17.28
13.59
9.39
4.51
-0.93
-6.51
-11.78
-16.39
-20.33
-23.87
-27.55
-31.96
-37.62
-44.84
-53.55
-63.23
-72.81
-80.80
-85.60
-85.90
-81.15
-71.77
-59.01
-44.60
-30.20
-17.04
-5.69
3.81
11.70
18.21
23.51
27.63
30.57
32.47
33.54
34.07
34.33
34.43
34.38
34.14
33.71
33.26
33.06
33.38
34.28
35.54
36.73
37.30
36.88
35.34
32.90
29.91
26.78
23.76
20.88
18.05
15.00
11.53
7.48
2.86
-2.21
-7.47
-12.55
-17.12
-21.00
-24.27
-27.35
-30.95
-35.75
-42.12
-49.76
-57.66
-64.33
-68.25
-68.34
-64.24
-56.39
-45.76
-33.61
-21.17
-9.43
0.89
9.43
16.14
21.23
25.06
27.96
30.19
31.88
33.06
33.65
33.62
32.99
31.89
30.69
29.86
29.82
30.76
32.41
34.18
35.35
35.38
34.10
31.74
28.68
25.27
21.74
18.11
14.31
10.28
6.04
1.65
-2.76
-7.11
-11.33
-15.47
-19.71
-24.26
-29.40
-35.32
-42.06
-49.41
-56.83
-63.38
-67.89
-69.10
-66.13
-58.81
-47.86
-34.71
-21.05
-8.35
2.51
11.28
18.13
23.47
27.66
30.99
33.69
35.92
37.73
39.15
40.11
40.56
40.47
39.95
39.17
38.41
37.92
37.92
38.47
39.45
40.55
41.30
41.22
39.93
37.28
33.39
28.66
23.61
18.79
14.61
11.22
8.53
6.16
3.67
0.62
-3.18
-7.72
-12.73
-17.84
-22.71
-27.12
-31.10
-34.82
-38.63
-42.96
-48.21
-54.64
-62.13
-70.14
-77.60
-83.06
-85.12
-82.78
-75.82
-64.95
-51.59
-37.43
-24.01
-12.31
-2.67
5.07
11.30
16.37
20.50
23.78
26.26
28.05
29.26
30.03
30.48
30.70
30.82
30.96
31.25
31.75
32.46
33.30
34.14
34.82
35.17
34.95
33.97
32.10
29.39
26.07
22.52
19.04
15.77
12.56
9.11
5.18
0.68
-4.15
-8.91
-13.20
-16.89
-20.23
-23.80
-28.26
-34.05
-41.21
-49.24
-57.20
-63.93
-68.23
-69.10
-66.03
-59.10
-49.04
-37.09
-24.63
-12.88
-2.60
5.97
12.93
18.47
22.75
25.87
27.90
29.03
29.47
29.49
29.24
28.83
28.34
27.83
27.40
27.18
27.24
27.57
28.03
28.39
28.35
27.61
25.99
23.53
20.41
16.94
13.42
9.96
6.54
3.01
-0.73
-4.67
-8.68
-12.66
-16.49
-20.12
-23.56
-26.81
-30.03
-33.51
-37.76
-43.26
-50.21
-58.16
-65.97
-72.01
-74.65
-72.84
-66.44
-56.30
-43.83
-30.62
-17.96
-6.65
2.98
10.95
17.36
22.35
26.02
28.55
30.12
31.01
31.51
31.84
32.13
32.32
32.34
32.10
31.68
31.27
31.19
31.67
32.74
34.11
35.31
35.80
35.22
33.46
30.66
27.15
23.25
19.15
14.85
10.27
5.25
-0.20
-5.91
-11.51
-16.57
-20.75
-23.96
-26.41
-28.55
-30.94
-34.12
-38.55
-44.44
-51.65
-59.54
-66.94
-72.33
-74.27
-71.85
-65.09
-54.91
-42.83
-30.42
-18.87
-8.85
-0.53
6.17
11.46
15.57
18.83
21.57
24.03
26.26
28.12
29.35
29.83
29.63
29.04
28.44
28.17
28.40
29.15
30.33
31.68
32.88
33.48
33.15
31.68
29.18
25.95
22.37
18.66
14.83
10.73
6.27
1.55
-3.17
-7.56
-11.44
-14.88
-18.18
-21.73
-25.90
-30.92
-36.89
-43.66
-50.76
-57.32
-62.15
-64.02
-62.07
-56.08
-46.65
-34.99
-22.53
-10.53
0.16
9.14
16.34
21.87
25.92
28.78
30.70
31.96
32.75
33.22
33.43
33.41
33.23
32.96
32.70
32.57
32.66
33.06
33.74
34.51
35.02
34.86
33.71
31.48
28.32
24.57
20.51
16.29
11.89
7.25
2.31
-2.81
-7.87
-12.63
-16.94
-20.81
-24.41
-28.06
-32.11
-36.98
-42.88
-49.74
-57.01
-63.59
-68.03
-68.92
-65.37
-57.44
-46.12
-33.07
-20.00
-8.24
1.57
9.39
15.44
19.98
23.08
24.73
25.04
24.26
22.90
21.47
20.40
19.88
19.83
20.05
20.29
20.41
20.38
20.31
20.34
20.48
20.59
20.32
19.24
17.03
13.65
9.37
4.68
0.01
-4.40
-8.65
-13.01
-17.78
-23.14
-29.05
-35.36
-41.85
-48.23
-54.04
-58.57
-60.90
-60.20
-55.98
-48.45
-38.47
-27.33
-16.34
-6.40
2.11
9.24
15.24
20.27
24.31
27.21
28.88
29.32
28.76
27.57
26.20
25.04
24.35
24.19
24.50
25.11
25.76
26.24
26.30
25.77
24.55
22.60
19.97
16.79
13.21
9.38
5.39
1.28
-2.89
-7.05
-11.11
-15.03
-18.89
-22.93
-27.44
-32.75
-39.01
-46.08
-53.46
-60.28
-65.39
-67.60
-66.02
-60.32
-50.98
-39.12
-26.28
-13.93
-3.10
5.76
12.76
18.33
22.90
26.75
29.96
32.42
34.00
34.71
34.67
34.13
33.41
32.75
32.32
32.17
32.25
32.50
32.84
33.20
33.43
33.30
32.55
31.00
28.61
25.50
21.88
17.97
13.88
9.63
5.17
0.44
-4.51
-9.60
-14.64
-19.43
-23.93
-28.22
-32.65
-37.72
-43.93
-51.45
-59.89
-68.25
-75.03
-78.70
-78.14
-73.04
-63.95
-52.07
-38.90
-25.74
-13.47
-2.51
7.05
15.27
22.22
27.91
32.36
35.66
37.98
39.52
40.46
40.83
40.65
39.97
39.00
38.15
37.93
38.73
40.59
43.17
45.81
47.74
48.37
47.43
45.10
41.78
38.02
34.20
30.52
26.92
23.18
19.02
14.24
8.76
2.70
-3.76
-10.38
-17.01
-23.60
-30.17
-36.87
-43.87
-51.29
-59.14
-67.08
-74.41
-80.01
-82.62
-81.25
-75.54
-65.98
-53.74
-40.41
-27.44
-15.82
-5.95
2.27
9.19
15.10
20.13
24.16
27.05
28.68
29.16
28.82
28.09
27.38
26.91
26.71
26.69
26.85
27.25
28.03
29.15
30.34
31.04
30.68
28.97
26.01
22.30
18.48
15.00
11.97
9.12
6.04
2.42
-1.81
-6.44
-11.19
-15.79
-20.20
-24.53
-29.02
-33.92
-39.40
-45.44
-51.82
-58.08
-63.49
-67.19
-68.28
-66.12
-60.50
-51.84
-41.04
-29.32
-17.84
-7.41
1.67
9.46
16.24
22.17
27.22
31.16
33.78
35.00
35.01
34.20
32.99
31.70
30.54
29.65
29.17
29.31
30.18
31.75
33.73
35.60
36.85
37.10
36.28
34.61
32.45
30.13
27.83
25.51
22.94
19.93
16.36
12.35
8.17
4.13
0.43
-2.91
-6.16
-9.67
-13.81
-18.83
-24.70
-31.11
-37.42
-42.79
-46.21
-46.83
-44.21
-38.46
-30.30
-20.84
-11.21
-2.20
5.84
12.95
19.33
25.12
30.22
34.47
37.63
39.59
40.34
40.01
38.79
36.92
34.73
32.57
30.81
29.74
29.48
29.93
30.79
31.63
31.96
31.46
29.97
27.58
24.55
21.23
17.88
14.56
11.18
7.49
3.33
-1.34
-6.37
-11.53
-16.63
-21.68
-26.91
-32.67
-39.15
-46.24
-53.29
-59.25
-62.88
-63.14
-59.50
-52.18
-42.03
-30.31
-18.33
-7.09
2.80
11.18
18.17
23.92
28.58
32.13
34.50
35.62
35.59
34.66
33.22
31.70
30.39
29.45
28.90
28.74
28.94
29.52
30.39
31.30
31.90
31.75
30.55
28.26
25.10
21.47
17.78
14.26
10.94
7.71
4.38
0.86
-2.84
-6.65
-10.43
-14.15
-17.87
-21.79
-26.13
-31.11
-36.81
-43.03
-49.31
-54.83
-58.54
-59.43
-56.79
-50.52
-41.19
-29.96
-18.24
-7.26
2.18
9.87
16.04
21.10
25.39
29.03
31.87
33.72
34.41
34.05
32.95
31.59
30.40
29.64
29.41
29.59
30.03
30.57
31.14
31.66
32.01
32.03
31.51
30.26
28.19
25.31
21.72
17.60
13.15
8.60
4.20
0.18
-3.30
-6.27
-9.00
-11.96
-15.73
-20.78
-27.29
-34.95
-42.97
-50.16
-55.25
-57.24
-55.62
-50.62
-43.03
-34.02
-24.76
-16.15
-8.68
-2.50
2.45
6.29
9.08
10.87
11.71
11.73
11.10
10.05
8.76
7.38
6.01
4.74
3.74
3.20
3.34
4.23
5.71
7.34
8.55
8.76
7.66
5.23
1.77
-2.25
-6.33
-10.08
-13.30
-16.00
-18.42
-20.99
-24.25
-28.60
-34.07
-40.10
-45.55
-49.07
-49.48
-46.25
-39.65
-30.65
-20.51
-10.38
-1.03
7.19
14.23
20.06
24.62
27.79
29.51
29.90
29.23
27.88
26.20
24.40
22.53
20.58
18.55
16.62
15.05
14.14
13.95
14.22
14.34
13.61
11.48
7.80
2.89
-2.64
-8.14
-13.09
-17.30
-20.85
-24.04
-27.28
-31.02
-35.61
-41.27
-47.83
-54.70
-60.81
-64.85
-65.64
-62.47
-55.40
-45.24
-33.34
-21.15
-9.89
-0.30
7.37
13.21
17.47
20.42
22.33
23.47
24.13
24.60
25.01
25.33
25.40
25.01
24.04
22.57
20.83
19.13
17.77
16.84
16.27
15.80
15.08
13.77
11.61
8.59
4.86
0.75
-3.38
-7.34
-11.17
-15.13
-19.58
-24.82
-30.93
-37.71
-44.64
-50.92
-55.62
-57.80
-56.82
-52.47
-45.15
-35.75
-25.46
-15.37
-6.24
1.60
8.25
14.02
19.22
23.98
28.26
31.84
34.45
35.98
36.50
36.31
35.82
35.43
35.46
35.99
37.02
38.37
39.77
40.86
41.29
40.75
39.08
36.25
32.45
27.91
22.91
17.60
12.13
6.57
1.03
-4.37
-9.54
-14.50
-19.33
-24.21
-29.29
-34.65
-40.26
-46.07
-52.01
-57.89
-63.38
-67.84
-70.40
-70.22
-66.73
-59.98
-50.65
-39.80
-28.50
-17.62
-7.60
1.37
9.25
15.96
21.45
25.74
28.95
31.30
32.99
34.08
34.57
34.42
33.74
32.80
31.94
31.44
31.35
31.56
31.78
31.75
31.31
30.45
29.20
27.51
25.36
22.62
19.26
15.36
11.14
6.81
2.59
-1.45
-5.36
-9.27
-13.29
-17.49
-21.92
-26.65
-31.87
-37.77
-44.36
-51.30
-57.71
-62.38
-64.10
-62.09
-56.38
-47.69
-37.26
-26.35
-15.93
-6.59
1.46
8.20
13.75
18.19
21.70
24.37
26.28
27.50
28.05
28.05
27.67
27.17
26.77
26.58
26.56
26.60
26.57
26.42
26.17
25.81
25.31
24.53
23.32
21.51
19.05
15.98
12.42
8.56
4.58
0.65
-3.11
-6.58
-9.75
-12.76
-15.93
-19.67
-24.33
-29.99
-36.32
-42.51
-47.46
-50.01
-49.31
-45.07
-37.67
-28.00
-17.27
-6.62
3.04
11.19
17.67
22.56
26.06
28.42
29.87
30.61
30.84
30.73
30.41
29.96
29.44
28.85
28.25
27.70
27.28
27.04
26.93
26.84
26.52
25.77
24.43
22.46
19.89
16.77
13.13
9.00
4.47
-0.29
-5.02
-9.46
-13.40
-16.80
-19.72
-22.41
-25.18
-28.41
-32.44
-37.49
-43.47
-49.88
-55.87
-60.27
-61.97
-60.19
-54.73
-46.05
-35.19
-23.40
-11.95
-1.77
6.63
13.20
18.15
21.83
24.58
26.66
28.27
29.47
30.32
30.81
30.94
30.74
30.29
29.76
29.30
29.08
29.18
29.62
30.31
31.11
31.82
32.17
31.90
30.83
28.94
26.38
23.40
20.29
17.13
13.88
10.35
6.36
1.91
-2.80
-7.42
-11.55
-14.97
-17.70
-20.02
-22.38
-25.27
-29.06
-33.97
-39.93
-46.54
-53.07
-58.50
-61.68
-61.68
-58.04
-50.99
-41.41
-30.53
-19.61
-9.60
-1.01
6.07
11.78
16.36
20.06
23.02
25.31
26.98
28.04
28.54
28.61
28.39
28.08
27.75
27.51
27.45
27.76
28.59
29.99
31.76
33.43
34.43
34.32
32.94
30.46
27.27
23.74
20.14
16.55
12.96
9.32
5.58
1.72
-2.26
-6.41
-10.71
-15.12
-19.52
-23.85
-28.08
-32.36
-36.95
-41.98
-47.39
-52.61
-56.69
-58.45
-57.01
-52.04
-43.99
-33.95
-23.26
-13.07
-4.10
3.42
9.57
14.53
18.41
21.28
23.18
24.21
24.50
24.22
23.51
22.58
21.64
20.99
20.87
21.48
22.75
24.41
26.01
27.01
27.03
25.93
23.89
21.27
18.46
15.68
12.89
9.90
6.51
2.71
-1.30
-5.22
-8.83
-12.11
-15.27
-18.60
-22.29
-26.46
-31.12
-36.23
-41.62
-46.88
-51.17
-53.43
-52.63
-48.27
-40.64
-30.77
-20.04
-9.74
-0.72
6.68
12.46
16.74
19.61
21.15
21.47
20.81
19.52
18.05
16.80
16.04
15.86
16.16
16.71
17.28
17.69
17.93
18.01
17.91
17.55
16.73
15.28
13.15
10.45
7.40
4.18
0.91
-2.37
-5.69
-9.02
-12.38
-15.78
-19.33
-23.23
-27.67
-32.72
-38.30
-44.01
-49.25
-53.20
-55.04
-54.10
-50.09
-43.21
-34.18
-24.05
-13.93
-4.72
3.09
9.42
14.45
18.41
21.44
23.57
24.79
25.13
24.71
23.78
22.60
21.43
20.44
19.65
19.13
18.87
18.91
19.26
19.85
20.49
20.86
20.67
19.72
18.00
15.67
12.95
10.03
7.00
3.82
0.48
-3.07
-6.75
-10.49
-14.31
-18.32
-22.74
-27.81
-33.66
-40.16
-46.79
-52.74
-57.00
-58.59
-56.89
-51.79
-43.76
-33.76
-22.94
-12.40
-2.96
4.93
11.24
16.11
19.77
22.43
24.25
25.41
26.13
26.64
27.08
27.39
27.43
27.08
26.38
25.65
25.27
25.52
26.33
27.25
27.73
27.26
25.73
23.41
20.75
18.17
15.82
13.63
11.34
8.69
5.57
2.06
-1.65
-5.39
-9.07
-12.72
-16.48
-20.51
-24.96
-29.92
-35.54
-41.78
-48.46
-54.94
-60.27
-63.33
-63.18
-59.44
-52.43
-43.04
-32.46
-21.81
-11.88
-3.08
4.50
10.87
16.04
20.01
22.77
24.40
25.11
25.18
24.91
24.52
24.13
23.81
23.63
23.75
24.35
25.53
27.19
29.03
30.57
31.34
31.03
29.56
27.10
23.97
20.52
17.05
13.69
10.44
7.20
3.82
0.19
-3.71
-7.83
-12.01
-16.15
-20.18
-24.16
-28.29
-32.83
-37.95
-43.62
-49.42
-54.53
-57.91
-58.57
-55.86
-49.76
-40.87
-30.32
-19.36
-9.09
-0.15
7.29
13.37
18.27
22.06
24.66
25.96
26.05
25.31
24.35
23.74
23.81
24.55
25.65
26.76
27.67
28.34
28.84
29.19
29.31
29.01
28.11
26.53
24.36
21.76
18.92
15.96
12.88
9.58
5.91
1.78
-2.83
-7.78
-12.86
-17.84
-22.61
-27.30
-32.18
-37.51
-43.36
-49.37
-54.75
-58.49
-59.62
-57.51
-52.06
-43.71
-33.27
-21.78
-10.27
0.35
9.43
16.61
21.82
25.19
27.00
27.60
27.41
26.87
26.49
26.70
27.76
29.64
32.01
34.41
36.39
37.69
38.38
38.65
38.74
38.74
38.56
37.95
36.65
34.50
31.53
27.90
23.86
19.67
15.49
11.41
7.40
3.35
-0.85
-5.20
-9.61
-13.85
-17.63
-20.76
-23.24
-25.39
-27.79
-31.17
-36.12
-42.85
-50.97
-59.51
-67.10
-72.28
-73.85
-71.27
-64.69
-54.94
-43.29
-31.05
-19.39
-9.05
-0.31
6.88
12.83
17.89
22.30
26.10
29.23
31.59
33.16
34.01
34.35
34.42
34.44
34.54
34.84
35.41
36.33
37.60
39.07
40.46
41.35
41.40
40.36
38.26
35.35
32.01
28.66
25.57
22.84
20.38
17.90
15.10
11.70
7.57
2.75
-2.49
-7.81
-12.88
-17.46
-21.55
-25.27
-28.92
-32.85
-37.42
-42.92
-49.40
-56.52
-63.46
-69.00
-71.79
-70.75
-65.47
-56.39
-44.61
-31.65
-18.89
-7.33
2.57
10.72
17.23
22.23
25.85
28.28
29.82
30.90
31.90
32.99
34.08
34.94
35.36
35.39
35.31
35.51
36.27
37.52
38.99
40.26
40.99
40.97
40.13
38.41
35.79
32.32
28.21
23.82
19.53
15.57
11.96
8.46
4.82
0.84
-3.52
-8.11
-12.73
-17.20
-21.46
-25.60
-29.89
-34.66
-40.19
-46.59
-53.57
-60.44
-66.18
-69.64
-69.85
-66.31
-59.13
-49.03
-37.14
-24.80
-13.20
-3.14
5.03
11.40
16.33
20.25
23.50
26.27
28.62
30.55
32.01
32.97
33.41
33.40
33.08
32.75
32.70
33.16
34.14
35.35
36.30
36.47
35.50
33.35
30.29
26.75
23.16
19.76
16.58
13.44
10.10
6.41
2.39
-1.81
-5.95
-9.88
-13.57
-17.18
-21.00
-25.36
-30.52
-36.60
-43.39
-50.31
-56.40
-60.52
-61.61
-59.03
-52.81
-43.59
-32.52
-20.83
-9.58
0.52
9.12
16.14
21.64
25.74
28.59
30.32
31.06
30.99
30.35
29.44
28.64
28.28
28.52
29.37
30.61
31.95
33.08
33.71
33.70
32.99
31.59
29.58
27.12
24.42
21.67
18.98
16.30
13.46
10.21
6.39
1.99
-2.82
-7.77
-12.58
-17.09
-21.27
-25.20
-28.99
-32.80
-36.89
-41.58
-47.17
-53.69
-60.68
-67.08
-71.45
-72.42
-69.16
-61.76
-51.18
-38.87
-26.31
-14.54
-4.04
5.06
12.82
19.19
24.07
27.43
29.45
30.52
31.17
31.83
32.71
33.72
34.63
35.21
35.35
35.10
34.62
34.08
33.63
33.26
32.91
32.40
31.52
30.11
28.09
25.55
22.66
19.63
16.53
13.31
9.81
5.90
1.60
-2.88
-7.23
-11.17
-14.57
-17.53
-20.35
-23.47
-27.43
-32.63
-39.27
-47.07
-55.19
-62.33
-66.99
-67.93
-64.62
-57.37
-47.27
-35.80
-24.37
-13.99
-5.14
2.14
8.10
13.08
17.33
20.92
23.84
25.92
27.08
27.34
26.90
26.13
25.44
25.18
25.55
26.54
27.99
29.65
31.22
32.39
32.86
32.40
30.91
28.43
25.23
21.67
18.14
14.94
12.14
9.64
7.18
4.52
1.48
-1.97
-5.75
-9.71
-13.73
-17.76
-21.83
-26.08
-30.77
-36.08
-42.05
-48.28
-53.99
-58.06
-59.40
-57.33
-51.86
-43.66
-33.89
-23.68
-13.88
-4.91
3.15
10.29
16.44
21.45
25.12
27.41
28.43
28.44
27.74
26.69
25.61
24.79
24.43
24.60
25.23
26.11
26.94
27.41
27.26
26.36
24.66
22.24
19.25
15.86
12.25
8.49
4.59
0.57
-3.55
-7.69
-11.71
-15.49
-19.02
-22.37
-25.75
-29.50
-33.93
-39.22
-45.14
-51.04
-55.91
-58.63
-58.40
-54.93
-48.53
-39.91
-30.06
-19.94
-10.36
-1.94
4.99
10.38
14.42
17.49
19.96
22.04
23.77
25.02
25.71
25.86
25.62
25.27
25.06
25.14
25.57
26.30
27.19
28.02
28.56
28.61
28.00
26.66
24.56
21.78
18.41
14.62
10.58
6.46
2.38
-1.62
-5.55
-9.46
-13.34
-17.16
-20.90
-24.68
-28.80
-33.58
-39.21
-45.42
-51.38
-55.86
-57.56
-55.63
-49.94
-41.23
-30.77
-19.94
-9.86
-1.15
6.05
11.86
16.49
20.03
22.47
23.79
24.07
23.59
22.74
21.95
21.54
21.58
21.93
22.34
22.57
22.50
22.11
21.47
20.65
19.63
18.34
16.67
14.51
11.77
8.45
4.62
0.47
-3.79
-7.97
-12.04
-16.09
-20.35
-25.13
-30.66
-37.03
-44.10
-51.38
-58.12
-63.29
-65.87
-65.06
-60.56
-52.69
-42.34
-30.75
-19.16
-8.59
0.39
7.61
13.30
17.82
21.59
24.83
27.64
29.92
31.52
32.34
32.41
31.91
31.14
30.42
30.02
30.10
30.64
31.42
32.08
32.26
31.66
30.21
27.96
25.05
21.61
17.68
13.30
8.57
3.69
-1.09
-5.59
-9.83
-13.93
-18.19
-22.93
-28.40
-34.76
-42.01
-49.80
-57.41
-63.76
-67.62
-67.94
-64.25
-56.82
-46.66
-35.17
-23.73
-13.35
-4.50
2.88
9.10
14.53
19.42
23.81
27.56
30.50
32.53
33.71
34.22
34.37
34.40
34.47
34.66
34.99
35.42
35.94
36.53
37.07
37.36
37.10
35.98
33.85
30.76
27.03
23.08
19.28
15.76
12.43
9.03
5.33
1.24
-3.11
-7.54
-11.93
-16.32
-20.98
-26.23
-32.36
-39.39
-46.99
-54.46
-60.71
-64.55
-64.97
-61.44
-54.20
-44.19
-32.77
-21.31
-10.80
-1.66
6.20
13.07
19.19
24.55
28.98
32.22
34.19
35.02
35.05
34.74
34.48
34.50
34.84
35.40
36.02
36.57
37.01
37.29
37.42
37.26
36.64
35.34
33.22
30.30
26.79
23.05
19.43
16.23
13.48
10.98
8.35
5.22
1.42
-2.91
-7.42
-11.65
-15.29
-18.35
-21.12
-24.12
-27.86
-32.70
-38.78
-45.93
-53.68
-61.19
-67.32
-70.78
-70.49
-65.99
-57.62
-46.45
-33.99
-21.60
-10.29
-0.51
7.71
14.54
20.20
24.87
28.70
31.80
34.29
36.24
37.63
38.43
38.66
38.42
37.97
37.63
37.64
38.12
38.94
39.77
40.19
39.86
38.60
36.40
33.42
29.87
25.93
21.79
17.63
13.56
9.64
5.81
1.98
-1.89
-5.75
-9.35
-12.49
-15.15
-17.60
-20.44
-24.30
-29.67
-36.54
-44.33
-51.94
-58.01
-61.24
-60.80
-56.47
-48.78
-38.77
-27.70
-16.78
-6.87
1.52
8.27
13.58
17.82
21.39
24.59
27.53
30.11
32.10
33.33
33.79
33.73
33.48
33.35
33.50
33.90
34.45
35.05
35.56
35.80
35.51
34.36
32.18
29.03
25.23
21.27
17.53
14.14
10.96
7.65
3.96
-0.15
-4.51
-8.87
-13.03
-17.01
-20.96
-25.14
-29.72
-34.81
-40.33
-46.03
-51.42
-55.79
-58.32
-58.26
-55.20
-49.23
-40.98
-31.41
-21.55
-12.19
-3.78
3.56
9.93
15.41
20.03
23.71
26.28
27.58
27.61
26.55
24.84
23.06
21.86
21.67
22.63
24.49
26.72
28.73
29.97
30.15
29.19
27.27
24.71
21.85
19.04
16.43
14.02
11.60
8.90
5.71
1.97
-2.21
-6.64
-11.12
-15.58
-20.08
-24.76
-29.80
-35.30
-41.08
-46.70
-51.39
-54.21
-54.33
-51.28
-45.13
-36.55
-26.62
-16.47
-7.01
1.25
8.20
13.96
18.72
22.53
25.35
27.06
27.58
27.04
25.70
24.02
22.49
21.48
21.18
21.54
22.29
23.09
23.56
23.47
22.80
21.64
20.20
18.65
17.08
15.45
13.62
11.44
8.79
5.66
2.14
-1.63
-5.52
-9.45
-13.39
-17.38
-21.48
-25.83
-30.59
-35.90
-41.72
-47.66
-52.96
-56.53
-57.31
-54.60
-48.39
-39.42
-28.97
-18.46
-9.02
-1.28
4.72
9.25
12.70
15.34
17.27
18.51
19.04
18.99
18.56
18.04
17.71
17.75
18.25
19.14
20.24
21.23
21.81
21.81
21.22
20.23
19.11
18.03
16.97
15.77
14.17
11.99
9.21
5.92
2.28
-1.58
-5.60
-9.70
-13.78
-17.75
-21.63
-25.60
-29.94
-34.81
-40.05
-45.02
-48.71
-50.05
-48.27
-43.22
-35.46
-26.03
-16.12
-6.74
1.51
8.35
13.76
17.74
20.30
21.51
21.55
20.78
19.64
18.57
17.83
17.53
17.55
17.77
17.98
18.05
17.81
17.16
16.09
14.69
13.18
11.69
10.20
8.46
6.19
3.14
-0.60
-4.71
-8.76
-12.44
-15.69
-18.73
-21.92
-25.60
-30.04
-35.26
-41.06
-46.92
-52.00
-55.19
-55.47
-52.19
-45.42
-35.98
-25.18
-14.43
-4.79
3.24
9.66
14.73
18.79
22.01
24.39
25.90
26.47
26.17
25.14
23.61
21.83
20.05
18.50
17.40
16.85
16.83
17.23
17.84
18.41
18.75
18.68
18.08
16.80
14.80
12.09
8.85
5.34
1.88
-1.30
-4.12
-6.69
-9.25
-12.10
-15.57
-19.86
-24.99
-30.71
-36.39
-41.17
-44.09
-44.37
-41.66
-36.11
-28.35
-19.31
-10.02
-1.34
6.10
12.07
16.56
19.82
22.15
23.81
24.90
25.43
25.36
24.67
23.47
21.96
20.41
18.99
17.79
16.75
15.76
14.72
13.60
12.40
11.08
9.56
7.65
5.16
1.97
-1.89
-6.24
-10.78
-15.18
-19.22
-22.79
-25.97
-28.96
-32.09
-35.62
-39.81
-44.74
-50.29
-56.04
-61.23
-64.85
-65.87
-63.61
-57.92
-49.34
-38.90
-27.81
-17.07
-7.36
1.03
8.03
13.65
17.93
21.00
23.08
24.45
25.33
25.81
25.88
25.48
24.64
23.54
22.49
21.77
21.54
21.77
22.33
22.99
23.59
24.01
24.07
23.52
22.07
19.49
15.73
11.05
5.98
1.14
-3.06
-6.47
-9.32
-12.09
-15.30
-19.34
-24.36
-30.28
-36.75
-43.14
-48.55
-51.97
-52.41
-49.26
-42.52
-32.90
-21.65
-10.17
0.33
9.19
16.28
21.88
26.43
30.26
33.53
36.26
38.40
39.94
40.96
41.59
42.01
42.36
42.78
43.36
44.17
45.28
46.71
48.42
50.25
51.95
53.11
53.27
52.08
49.42
45.42
40.52
35.16
29.76
24.47
19.18
13.62
7.40
0.15
-8.38
-18.17
-28.79
-39.29
-48.35
-54.55
-56.85
-54.92
-49.26
-41.06
-31.78
-22.70
-14.77
-8.46
-3.98
-1.33
-0.33
-0.72
-2.03
-3.72
-5.32
-6.51
-7.31
-7.93
-8.66
-9.76
-11.32
-13.18
-15.12
-16.85
-18.16
-18.98
-19.44
-19.81
-20.47
-21.80
-24.08
-27.39
-31.59
-36.34
-41.22
-45.83
-49.91
-53.44
-56.57
-59.67
-63.18
-67.39
-72.22
-77.09
-80.95
-82.51
-80.72
-75.01
-65.64
-53.51
-39.87
-25.95
-12.69
-0.58
10.20
19.67
27.91
34.97
40.90
45.75
49.62
52.58
54.72
56.15
56.98
57.37
57.46
57.32
56.95
56.17
54.83
52.83
50.18
47.02
43.44
39.50
35.14
30.29
24.99
19.40
13.75
8.19
2.74
-2.69
-8.15
-13.63
-19.04
-24.35
-29.69
-35.25
-41.10
-46.87
-51.78
-54.74
-54.75
-51.33
-44.77
-35.89
-25.87
-15.77
-6.28
2.24
9.73
16.19
21.60
25.89
28.95
30.74
31.35
31.04
30.14
29.04
28.09
27.48
27.31
27.58
28.23
29.14
30.15
31.01
31.39
30.99
29.55
27.06
23.73
19.91
15.99
12.17
8.41
4.45
-0.00
-5.10
-10.71
-16.47
-21.95
-26.87
-31.19
-35.17
-39.20
-43.75
-49.13
-55.45
-62.46
-69.54
-75.66
-79.63
-80.38
-77.26
-70.27
-60.07
-47.76
-34.56
-21.64
-9.81
0.41
8.75
15.19
19.86
22.97
24.84
25.81
26.17
26.20
26.12
26.10
26.28
26.75
27.50
28.43
29.27
29.70
29.45
28.42
26.70
24.56
22.27
19.97
17.61
14.97
11.82
8.06
3.76
-0.89
-5.61
-10.19
-14.47
-18.40
-22.04
-25.53
-29.17
-33.30
-38.20
-43.84
-49.78
-55.08
-58.51
-58.91
-55.57
-48.49
-38.37
-26.44
-14.03
-2.29
8.10
16.88
24.07
29.80
34.15
37.11
38.67
38.97
38.31
37.23
36.29
35.85
36.10
36.91
37.95
38.93
39.66
40.10
40.29
40.20
39.65
38.35
36.01
32.44
27.76
22.35
16.69
11.19
6.05
1.21
-3.61
-8.71
-14.37
-20.78
-28.03
-36.02
-44.30
-51.98
-57.77
-60.35
-58.82
-53.07
-43.89
-32.69
-20.97
-9.84
0.19
9.07
16.98
23.98
29.98
34.78
38.30
40.62
42.00
42.72
42.99
42.89
42.45
41.77
41.02
40.45
40.23
40.36
40.62
40.65
40.09
38.66
36.29
33.03
29.05
24.59
19.85
15.00
10.16
5.34
0.57
-4.16
-8.84
-13.51
-18.27
-23.40
-29.30
-36.28
-44.38
-53.15
-61.59
-68.33
-71.98
-71.54
-66.70
-57.96
-46.41
-33.42
-20.25
-7.84
3.29
12.95
21.09
27.81
33.26
37.63
41.10
43.77
45.63
46.62
46.73
46.18
45.34
44.68
44.49
44.81
45.38
45.84
45.91
45.48
44.56
43.15
41.14
38.31
34.48
29.65
24.12
18.34
12.80
7.82
3.45
-0.52
-4.48
-8.78
-13.75
-19.55
-26.30
-33.99
-42.49
-51.32
-59.60
-66.07
-69.40
-68.60
-63.43
-54.51
-43.15
-30.88
-18.97
-8.15
1.37
9.73
17.09
23.47
28.81
33.02
36.18
38.49
40.24
41.73
43.15
44.63
46.23
48.02
50.02
52.20
54.39
56.24
57.27
57.04
55.31
52.09
47.68
42.48
36.86
31.02
25.03
18.83
12.46
6.03
-0.22
-6.10
-11.54
-16.64
-21.67
-26.98
-32.89
-39.58
-46.97
-54.65
-61.80
-67.37
-70.25
-69.67
-65.41
-57.89
-48.03
-36.96
-25.72
-15.12
-5.66
2.32
8.63
13.16
15.97
17.28
17.43
16.82
15.83
14.73
13.73
12.97
12.60
12.77
13.54
14.86
16.52
18.21
19.52
20.08
19.66
18.12
15.53
12.02
7.84
3.30
-1.26
-5.57
-9.52
-13.19
-16.90
-21.12
-26.27
-32.51
-39.53
-46.51
-52.21
-55.26
-54.61
-49.88
-41.48
-30.47
-18.28
-6.27
4.59
13.75
21.07
26.58
30.44
32.77
33.78
33.77
33.17
32.47
32.04
32.04
32.31
32.52
32.34
31.65
30.67
29.81
29.48
29.78
30.46
30.92
30.54
28.99
26.28
22.80
19.03
15.35
11.92
8.70
5.48
2.01
-2.09
-7.16
-13.44
-20.89
-28.92
-36.49
-42.27
-45.12
-44.37
-40.09
-33.01
-24.27
-15.05
-6.33
1.28
7.52
12.41
16.08
18.73
20.48
21.44
21.77
21.61
21.21
20.79
20.51
20.46
20.65
21.07
21.68
22.41
23.14
23.67
23.81
23.40
22.34
20.54
17.89
14.28
9.64
4.02
-2.33
-9.04
-15.72
-22.12
-28.21
-34.17
-40.30
-46.80
-53.80
-61.24
-68.94
-76.50
-83.22
-88.11
-90.04
-88.15
-82.18
-72.77
-61.26
-49.25
-38.07
-28.36
-20.10
-12.92
-6.49
-0.80
3.93
7.46
9.69
10.81
11.18
11.15
10.99
10.87
10.89
11.13
11.67
12.55
13.78
15.28
16.86
18.19
18.92
18.74
17.58
15.67
13.47
11.48
10.07
9.24
8.65
7.83
6.33
3.92
0.59
-3.44
-7.88
-12.35
-16.54
-20.24
-23.49
-26.64
-30.29
-35.05
-41.24
-48.65
-56.36
-62.99
-67.00
-67.24
-63.21
-55.25
-44.37
-31.97
-19.47
-8.00
1.78
9.61
15.62
20.10
23.37
25.67
27.20
28.06
28.38
28.31
28.07
27.96
28.27
29.14
30.53
32.18
33.70
34.70
35.01
34.65
33.83
32.79
31.68
30.48
29.05
27.25
24.93
22.08
18.75
15.09
11.28
7.48
3.71
-0.12
-4.21
-8.76
-13.84
-19.36
-24.99
-30.19
-34.25
-36.43
-36.11
-32.97
-27.12
-19.13
-9.87
-0.27
8.89
16.99
23.67
28.63
31.70
32.82
32.22
30.35
27.80
25.14
22.75
20.87
19.60
18.98
18.93
19.33
19.88
20.27
20.21
19.55
18.27
16.40
13.96
10.97
7.51
3.74
-0.10
-3.79
-7.23
-10.54
-14.01
-18.01
-22.82
-28.48
-34.75
-41.01
-46.44
-50.07
-51.11
-49.10
-44.07
-36.53
-27.33
-17.50
-7.97
0.54
7.63
13.22
17.45
20.49
22.50
23.53
23.65
22.95
21.64
19.97
18.17
16.40
14.71
13.24
12.11
11.53
11.59
12.19
12.96
13.44
13.15
11.78
9.31
5.92
1.96
-2.18
-6.17
-9.86
-13.29
-16.77
-20.73
-25.53
-31.22
-37.37
-43.07
-47.16
-48.57
-46.63
-41.29
-33.12
-23.12
-12.47
-2.24
6.78
14.14
19.72
23.61
26.06
27.28
27.50
26.92
25.75
24.21
22.51
20.85
19.35
18.10
17.13
16.46
16.05
15.80
15.54
15.03
13.98
12.18
9.55
6.18
2.32
-1.69
-5.56
-9.18
-12.66
-16.39
-20.80
-26.21
-32.52
-39.12
-44.94
-48.76
-49.51
-46.68
-40.50
-31.84
-21.93
-11.94
-2.72
5.24
11.82
16.98
20.68
22.89
23.61
23.03
21.47
19.34
17.06
14.95
13.26
12.15
11.69
11.85
12.37
12.89
12.98
12.27
10.63
8.18
5.21
2.02
-1.19
-4.41
-7.77
-11.45
-15.57
-20.19
-25.35
-30.98
-36.79
-42.27
-46.52
-48.54
-47.44
-42.88
-35.26
-25.66
-15.56
-6.30
1.30
7.05
11.27
14.39
16.71
18.30
19.03
18.80
17.67
15.87
13.78
11.77
10.14
9.11
8.73
8.97
9.61
10.28
10.61
10.26
9.07
7.09
4.44
1.29
-2.28
-6.23
-10.57
-15.29
-20.42
-25.94
-31.73
-37.46
-42.47
-45.85
-46.68
-44.32
-38.70
-30.38
-20.41
-10.00
-0.19
8.35
15.39
21.01
25.39
28.66
30.81
31.75
31.48
30.16
28.18
26.08
24.34
23.17
22.50
22.05
21.58
20.98
20.37
19.93
19.69
19.46
18.78
17.22
14.48
10.61
6.02
1.30
-3.02
-6.70
-9.86
-12.94
-16.50
-21.00
-26.66
-33.39
-40.80
-48.20
-54.73
-59.37
-61.25
-59.81
-55.05
-47.55
-38.40
-28.84
-19.94
-12.36
-6.28
-1.57
2.13
5.08
7.47
9.23
10.19
10.15
9.03
6.96
4.23
1.23
-1.73
-4.54
-7.15
-9.52
-11.42
-12.50
-12.38
-10.92
-8.36
-5.22
-2.14
0.44
2.41
3.94
5.22
6.32
7.00
6.86
5.59
3.14
-0.14
-3.70
-7.05
-10.01
-12.80
-15.90
-19.73
-24.31
-29.10
-33.10
-35.07
-34.01
-29.39
-21.32
-10.50
2.04
15.16
27.83
39.33
49.37
58.00
65.48
72.18
78.29
83.79
88.45
91.95
94.11
94.93
94.70
93.79
92.53
90.99
89.05
86.40
82.81
78.28
73.05
67.50
61.96
56.53
51.09
45.45
39.56
33.62
27.99
23.01
18.77
15.02
11.26
6.88
1.42
-5.34
-13.29
-21.98
-30.66
-38.36
-44.07
-46.96
-46.61
-43.12
-37.12
-29.58
-21.50
-13.75
-6.80
-0.83
4.27
8.59
12.08
14.59
15.90
15.93
14.85
13.08
11.10
9.35
8.07
7.28
6.88
6.65
6.38
5.87
5.02
3.84
2.41
0.83
-0.89
-2.91
-5.46
-8.71
-12.55
-16.63
-20.48
-23.72
-26.30
-28.52
-30.79
-33.53
-36.93
-40.89
-45.16
-49.32
-52.89
-55.32
-56.08
-54.70
-50.97
-45.02
-37.33
-28.70
-20.01
-12.08
-5.48
-0.46
3.03
5.29
6.75
7.80
8.67
9.42
9.92
10.02
9.64
8.89
8.03
7.39
7.23
7.60
8.35
9.16
9.68
9.62
8.82
7.23
4.92
2.00
-1.36
-4.92
-8.43
-11.70
-14.75
-17.85
-21.39
-25.77
-31.04
-36.79
-42.19
-46.16
-47.76
-46.40
-42.06
-35.27
-26.90
-17.98
-9.38
-1.73
4.69
9.86
13.92
17.04
19.36
21.02
22.16
22.93
23.46
23.78
23.83
23.54
22.85
21.83
20.69
19.64
18.82
18.26
17.86
17.44
16.84
15.89
14.45
12.39
9.65
6.26
2.40
-1.66
-5.63
-9.34
-12.80
-16.30
-20.25
-25.12
-31.09
-37.99
-45.11
-51.38
-55.65
-57.00
-55.04
-49.94
-42.39
-33.34
-23.75
-14.39
-5.86
1.46
7.31
11.54
14.18
15.39
15.47
14.81
13.79
12.69
11.63
10.54
9.33
7.82
5.95
3.78
1.49
-0.68
-2.50
-3.80
-4.60
-5.14
-5.82
-7.11
-9.45
-13.00
-17.61
-22.86
-28.17
-33.05
-37.24
-40.70
-43.52
-45.87
-47.84
-49.47
-50.67
-51.24
-50.79
-48.77
-44.52
-37.51
-27.60
-15.16
-1.07
13.45
27.16
39.13
48.77
55.93
60.70
63.29
63.96
62.99
60.68
57.40
53.48
49.21
44.79
40.38
36.12
32.16
28.69
25.82
23.54
21.73
20.20
18.79
17.43
16.08
14.68
13.12
11.23
8.89
6.13
3.16
0.32
-2.00
-3.53
-4.14
-3.85
-2.78
-1.08
1.12
3.69
6.50
9.49
12.70
16.35
20.84
26.52
33.54
41.63
50.12
58.11
64.77
69.61
72.49
73.57
73.07
71.20
68.10
63.88
58.71
52.79
46.26
39.17
31.57
23.57
15.42
7.53
0.28
-6.11
-11.74
-16.86
-21.88
-27.04
-32.35
-37.56
-42.30
-46.30
-49.47
-51.99
-54.17
-56.27
-58.44
-60.65
-62.79
-64.73
-66.38
-67.66
-68.56
-69.12
-69.56
-70.26
-71.70
-74.12
-77.35
-80.65
-82.87
-82.77
-79.42
-72.52
-62.40
-49.93
-36.27
-22.63
-10.13
0.40
8.49
14.13
17.61
19.42
20.07
19.92
19.19
18.06
16.69
15.34
14.16
13.14
12.13
10.94
9.46
7.86
6.51
5.78
5.80
6.32
6.75
6.41
4.89
2.19
-1.29
-5.07
-8.76
-12.26
-15.66
-19.14
-22.76
-26.55
-30.56
-34.89
-39.58
-44.51
-49.17
-52.72
-54.19
-52.80
-48.25
-40.80
-31.16
-20.36
-9.39
0.90
9.89
17.24
22.88
26.87
29.31
30.38
30.23
29.11
27.33
25.27
23.33
21.83
21.00
20.95
21.60
22.70
23.89
24.76
24.97
24.34
22.92
20.86
18.37
15.56
12.47
9.09
5.47
1.71
-2.07
-5.81
-9.58
-13.48
-17.70
-22.34
-27.48
-33.10
-39.04
-44.91
-50.06
-53.63
-54.75
-52.81
-47.69
-39.74
-29.73
-18.58
-7.15
3.83
13.76
22.21
28.82
33.43
36.05
36.80
35.93
33.76
30.66
27.09
23.56
20.56
18.48
17.50
17.50
18.17
19.02
19.58
19.50
18.61
16.97
14.81
12.40
9.92
7.44
4.89
2.16
-0.88
-4.31
-8.19
-12.49
-17.12
-21.88
-26.59
-31.21
-35.85
-40.82
-46.45
-52.80
-59.38
-65.18
-68.89
-69.33
-65.82
-58.46
-48.04
-35.81
-23.11
-11.09
-0.46
8.42
15.48
20.72
24.18
25.82
25.62
23.68
20.30
15.98
11.39
7.19
3.95
2.01
1.49
2.25
4.00
6.32
8.71
10.75
12.09
12.54
12.06
10.71
8.66
6.03
2.98
-0.44
-4.15
-8.12
-12.25
-16.47
-20.70
-24.97
-29.34
-34.06
-39.35
-45.41
-52.27
-59.61
-66.73
-72.54
-75.78
-75.33
-70.58
-61.56
-49.08
-34.45
-19.12
-4.40
8.81
20.00
28.96
35.66
40.12
42.42
42.79
41.59
39.39
36.76
34.31
32.43
31.34
30.98
31.14
31.53
31.92
32.20
32.36
32.42
32.27
31.70
30.38
28.04
24.59
20.17
15.16
9.95
4.86
-0.01
-4.78
-9.81
-15.51
-22.24
-30.07
-38.63
-47.05
-54.18
-58.74
-59.69
-56.39
-48.80
-37.38
-23.07
-7.09
9.22
24.63
38.22
49.44
58.06
64.10
67.73
69.19
68.88
67.27
64.93
62.35
59.94
58.02
56.85
56.77
58.09
60.97
65.27
70.50
75.76
80.04
82.37
82.03
78.74
72.64
64.17
53.86
42.17
29.40
15.67
1.01
-14.52
-30.87
-47.93
-65.41
-82.65
-98.39
-110.83
-117.96
-118.27
-111.21
-97.51
-78.92
-57.65
-35.75
-14.81
4.16
20.42
33.41
42.63
47.80
48.95
46.55
41.50
34.84
27.61
20.60
14.24
8.67
3.83
-0.30
-3.57
-5.64
-6.16
-4.93
-2.04
2.10
6.87
11.69
16.09
19.81
22.79
25.08
26.70
27.61
27.64
26.58
24.22
20.48
15.57
10.16
5.46
3.16
5.13
12.81
26.67
45.86
68.23
91.03
111.64
128.36
140.45
147.95
151.07
149.89
144.34
134.63
121.52
106.46
91.14
77.05
65.07
55.42
47.91
42.25
38.22
35.70
34.49
34.11
33.83
32.70
29.76
24.32
16.13
5.48
-6.90
-20.12
-33.48
-46.66
-59.84
-73.48
-88.00
-103.52
-119.69
-135.53
-149.56
-160.01
-165.14
-163.71
-155.47
-141.24
-122.78
-102.27
-81.74
-62.63
-45.73
-31.30
-19.38
-9.95
-2.92
1.94
5.08
7.09
8.61
10.11
11.85
13.84
16.05
18.42
21.04
24.04
27.48
31.18
34.68
37.26
38.19
36.94
33.35
27.65
20.27
11.78
2.64
-6.84
-16.58
-26.70
-37.49
-49.24
-61.99
-75.21
-87.70
-97.67
-103.27
-103.07
-96.61
-84.58
-68.57
-50.63
-32.73
-16.36
-2.35
8.90
17.24
22.57
24.69
23.46
18.96
11.57
1.95
-9.09
-20.85
-32.78
-44.36
-54.97
-63.87
-70.28
-73.79
-74.52
-73.06
-70.17
-66.28
-61.24
-54.57
-45.91
-35.56
-24.73
-15.26
-9.08
-7.62
-11.42
-20.17
-32.87
-48.03
-63.78
-77.92
-88.17
-92.48
-89.55
-79.30
-62.91
-42.63
-21.13
-0.77
16.81
30.95
41.76
49.71
55.32
58.90
60.61
60.59
59.10
56.58
53.62
50.81
48.60
47.23
46.72
46.99
47.84
49.06
50.30
51.12
50.98
49.33
45.84
40.53
33.83
26.49
19.35
12.97
7.52
2.61
-2.55
-8.82
-16.77
-26.29
-36.39
-45.28
-50.79
-50.94
-44.56
-31.69
-13.55
7.79
30.00
51.04
69.50
84.62
96.17
104.27
109.11
110.97
110.14
106.97
101.83
95.15
87.43
79.19
70.95
63.14
56.07
49.86
44.41
39.45
34.68
29.71
24.29
18.25
11.58
4.41
-3.02
-10.50
-17.96
-25.60
-33.88
-43.38
-54.49
-67.04
-80.04
-91.73
-99.83
-102.22
-97.60
-85.88
-68.31
-47.07
-24.65
-3.30
15.34
30.37
41.52
48.93
53.01
54.30
53.44
51.04
47.68
43.84
39.93
36.21
32.91
30.15
27.98
26.31
24.95
23.59
21.90
19.53
16.19
11.67
5.87
-1.20
-9.47
-18.78
-29.00
-39.96
-51.56
-63.73
-76.51
-90.05
-104.52
-119.98
-136.10
-152.10
-166.80
-178.91
-187.45
-191.91
-192.22
-188.35
-180.15
-167.24
-149.50
-127.41
-102.36
-76.44
-51.77
-29.99
-11.76
3.07
15.07
24.76
32.35
37.80
40.93
41.78
40.59
37.93
34.52
31.15
28.51
27.08
27.09
28.49
31.07
34.48
38.26
41.94
45.01
47.09
48.01
47.81
46.71
45.00
42.81
40.13
36.84
32.85
28.35
23.77
19.74
16.83
15.30
14.96
15.23
15.34
14.58
12.62
9.64
6.46
4.35
4.84
9.28
18.46
32.39
50.32
71.04
93.18
115.61
137.43
158.00
176.75
193.26
207.33
219.16
229.40
239.02
249.16
260.94
275.35
293.21
314.81
339.52
365.48
389.64
408.50
419.20
420.52
413.29
399.93
383.37
365.79
347.90
329.10
308.00
283.14
253.41
217.83
175.24
124.45
65.03
-1.73
-72.33
-141.92
-205.82
-261.34
-308.40
-348.80
-384.47
-415.86
-441.49
-458.80
-465.68
-461.70
-448.26
-427.74
-402.50
-374.20
-343.95
-312.77
-281.92
-252.80
-226.53
-203.63
-183.94
-166.73
-151.11
-136.37
-122.22
-108.75
-96.28
-85.08
-75.22
-66.37
-58.01
-49.65
-41.07
-32.46
-24.34
-17.32
-11.82
-7.96
-5.58
-4.31
-3.86
-4.08
-4.87
-6.20
-7.95
-9.99
-12.24
-14.77
-17.71
-21.20
-25.30
-29.99
-35.27
-41.27
-48.09
-55.65
-63.35
-69.99
-74.00
-73.96
-69.04
-59.47
-46.33
-31.23
-15.76
-1.05
12.27
24.03
34.16
42.62
49.34
54.22
57.33
58.89
59.24
58.76
57.81
56.70
55.68
55.00
54.85
55.29
56.20
57.28
58.16
58.45
57.90
56.39
53.93
50.68
46.82
42.58
38.16
33.67
29.15
24.54
19.71
14.63
9.33
4.05
-0.99
-5.60
-9.83
-13.98
-18.45
-23.69
-29.89
-36.88
-44.01
-50.22
-54.29
-55.12
-52.02
-44.96
-34.52
-21.82
-8.16
5.21
17.36
27.70
35.99
42.19
46.40
48.75
49.50
48.95
47.49
45.58
43.63
41.93
40.64
39.79
39.33
39.21
39.36
39.65
39.90
39.80
39.09
37.61
35.33
32.38
28.86
24.85
20.34
15.35
10.01
4.62
-0.45
-4.85
-8.40
-11.08
-13.03
-14.50
-15.81
-17.31
-19.28
-21.90
-25.09
-28.43
-31.14
-32.20
-30.62
-25.78
-17.61
-6.68
6.00
19.23
31.98
43.50
53.35
61.31
67.32
71.41
73.76
74.75
74.92
74.77
74.63
74.58
74.45
74.01
73.13
71.77
70.04
68.05
65.81
63.19
60.02
56.05
51.13
45.17
38.18
30.24
21.50
12.09
2.18
-8.07
-18.52
-28.96
-39.10
-48.52
-56.78
-63.48
-68.45
-71.86
-74.21
-76.22
-78.66
-82.01
-86.35
-91.13
-95.32
-97.64
-96.82
-92.02
-83.03
-70.28
-54.74
-37.71
-20.43
-3.95
10.99
23.92
34.62
42.98
49.07
53.24
56.13
58.67
61.91
66.70
73.40
81.74
90.86
99.61
107.01
112.48
115.95
117.72
118.19
117.62
116.10
113.68
110.50
106.93
103.46
100.59
98.55
97.12
95.63
93.11
88.50
81.02
70.21
56.01
38.72
18.86
-2.78
-25.18
-47.07
-67.07
-83.95
-97.03
-106.37
-112.77
-117.49
-121.74
-126.34
-131.48
-136.86
-141.97
-146.31
-149.57
-151.49
-151.88
-150.47
-147.04
-141.52
-134.06
-124.99
-114.66
-103.19
-90.46
-76.15
-60.12
-42.58
