timestamp,x,y,z
1582293935129137,-0.368652,-0.638184,0.59668
1582293935144098,-0.369629,-0.639648,0.598633
1582293935167035,-0.366211,-0.638184,0.605957
1582293935189973,-0.370117,-0.636719,0.619141
1582293935204934,-0.382324,-0.630859,0.621094
1582293935226876,-0.389648,-0.619629,0.630859
1582293935250814,-0.389648,-0.616211,0.635742
1582293935265769,-0.387207,-0.613281,0.648438
1582293935326649,-0.383301,-0.624023,0.646973
1582293935327606,-0.387695,-0.621582,0.638672
1582293935333866,-0.391602,-0.628418,0.637207
1582293935347740,-0.371582,-0.63916,0.642578
1582293935371487,-0.342285,-0.650391,0.654785
1582293935385661,-0.343262,-0.646484,0.641113
1582293935429373,-0.358887,-0.65332,0.630859
1582293935439345,-0.360352,-0.654297,0.63916
1582293935445292,-0.366211,-0.653809,0.63916
1582293935467268,-0.372559,-0.65625,0.638184
1582293935483189,-0.376953,-0.650391,0.642578
1582293935513282,-0.389648,-0.648926,0.633301
1582293935529070,-0.393066,-0.648438,0.64209
1582293935551223,-0.381836,-0.652344,0.653809
1582293935580073,-0.372559,-0.657227,0.649902
1582293935587916,-0.375488,-0.655273,0.649902
1582293935611210,-0.393066,-0.638672,0.660156
1582293935633847,-0.380371,-0.632813,0.672363
1582293935648089,-0.365234,-0.642578,0.680664
1582293935670888,-0.355957,-0.621582,0.665527
1582293935693636,-0.376953,-0.618652,0.66748
1582293935707589,-0.371582,-0.637695,0.665039
1582293935731552,-0.35791,-0.643066,0.677246
1582293935753472,-0.339844,-0.645508,0.662109
1582293935768426,-0.346191,-0.639648,0.655762
1582293935791366,-0.348633,-0.634277,0.645508
1582293935813735,-0.346191,-0.641602,0.652832
1582293935828268,-0.341309,-0.648438,0.648438
1582293935851262,-0.329102,-0.654785,0.643066
1582293935873381,-0.328125,-0.654785,0.643066
1582293935896141,-0.333496,-0.655273,0.642578
1582293935919030,-0.327148,-0.661133,0.635742
1582293935940964,-0.327637,-0.662109,0.641113
1582293935955926,-0.320801,-0.670898,0.644043
1582293935970884,-0.311523,-0.672363,0.636719
1582293935993875,-0.31543,-0.677734,0.632813
1582293936014994,-0.348145,-0.64209,0.6875
1582293936030921,-0.32666,-0.700684,0.614746
1582293936053881,-0.307129,-0.70459,0.634277
1582293936074929,-0.303223,-0.707031,0.641113
1582293936091567,-0.303223,-0.707031,0.638672
1582293936113704,-0.299316,-0.703613,0.631836
1582293936134653,-0.300293,-0.682617,0.641113
1582293936151410,-0.307129,-0.67334,0.641602
1582293936173912,-0.310059,-0.667969,0.643066
1582293936196283,-0.314941,-0.672852,0.635254
1582293936211246,-0.3125,-0.681641,0.633301
1582293936233344,-0.314453,-0.6875,0.623535
1582293936255173,-0.320801,-0.714355,0.628418
1582293936271250,-0.308105,-0.732422,0.639648
1582293936294029,-0.311035,-0.734863,0.639648
1582293936314967,-0.306641,-0.73291,0.624023
1582293936330926,-0.307617,-0.733887,0.624023
1582293936353916,-0.313965,-0.6875,0.622559
1582293936374868,-0.314453,-0.668945,0.640137
1582293936390761,-0.289551,-0.655273,0.659668
1582293936419889,-0.285156,-0.626465,0.659668
1582293936436641,-0.272949,-0.61084,0.678711
1582293936458862,-0.253418,-0.62207,0.694336
1582293936479995,-0.265137,-0.617188,0.711426
1582293936496480,-0.273926,-0.617188,0.722168
1582293936518422,-0.280762,-0.57959,0.740234
1582293936540181,-0.269531,-0.531738,0.76416
1582293936556534,-0.26416,-0.485352,0.755859
1582293936578426,-0.280273,-0.478516,0.773438
1582293936600283,-0.289063,-0.491699,0.778809
1582293936616219,-0.294434,-0.495605,0.764648
1582293936639309,-0.29541,-0.499512,0.766602
1582293936660224,-0.303223,-0.519531,0.741699
1582293936675058,-0.306152,-0.604492,0.751465
1582293936698958,-0.273926,-0.651367,0.707031
1582293936719930,-0.263184,-0.691406,0.695313
1582293936735838,-0.261719,-0.712402,0.665039
1582293936758785,-0.268066,-0.704102,0.649902
1582293936779777,-0.265137,-0.70166,0.657227
1582293936795679,-0.260254,-0.706543,0.657227
1582293936801836,-0.265625,-0.706055,0.664063
1582293936831631,-0.263184,-0.696777,0.660156
1582293936846548,-0.270996,-0.683105,0.661133
1582293936863242,-0.275879,-0.679688,0.663574
1582293936884448,-0.279785,-0.693359,0.666504
1582293936909420,-0.282227,-0.687012,0.675781
1582293936921341,-0.290527,-0.668945,0.672363
1582293936951393,-0.288086,-0.661621,0.669922
1582293936966222,-0.299316,-0.684082,0.675781
1582293936981391,-0.299316,-0.707031,0.66748
1582293937004174,-0.294434,-0.716797,0.670898
1582293937026115,-0.293945,-0.710449,0.677246
1582293937043451,-0.286133,-0.681641,0.694336
1582293937064167,-0.298828,-0.661133,0.738281
1582293937086898,-0.258301,-0.642578,0.695801
1582293937101859,-0.270508,-0.542969,0.697754
1582293937123807,-0.305176,-0.491211,0.72998
1582293937146882,-0.31543,-0.48877,0.730957
1582293937161859,-0.313965,-0.517578,0.741211
1582293937183649,-0.3125,-0.523438,0.770996
1582293937206589,-0.309082,-0.504883,0.778809
1582293937221690,-0.313965,-0.462891,0.761719
1582293937244537,-0.327148,-0.456055,0.779785
1582293937266420,-0.339355,-0.4375,0.800293
1582293937289366,-0.349121,-0.39502,0.795898
1582293937304539,-0.337891,-0.380859,0.804688
1582293937327256,-0.322266,-0.39502,0.82959
1582293937341288,-0.328125,-0.405273,0.832031
1582293937364198,-0.345703,-0.406738,0.820313
1582293937386348,-0.368164,-0.399902,0.790039
1582293937401097,-0.379395,-0.398438,0.776367
1582293937424251,-0.379883,-0.414551,0.772949
1582293937441949,-0.384277,-0.449219,0.781738
1582293937463055,-0.375977,-0.456543,0.789063
1582293937483845,-0.360352,-0.444336,0.783691
1582293937507781,-0.374023,-0.441406,0.771973
1582293937523418,-0.374023,-0.450684,0.78125
1582293937543679,-0.352539,-0.462891,0.79541
1582293937566616,-0.310547,-0.459961,0.794434
1582293937582935,-0.291016,-0.479492,0.843262
1582293937604578,-0.311035,-0.486816,0.815918
1582293937626593,-0.309082,-0.424316,0.805664
1582293937643413,-0.305176,-0.40625,0.833984
1582293937664685,-0.307617,-0.422852,0.844727
1582293937686484,-0.313477,-0.418945,0.858887
1582293937703250,-0.319824,-0.39502,0.833496
1582293937724258,-0.333008,-0.361816,0.82373
1582293937749823,-0.333984,-0.345703,0.833984
1582293937763090,-0.329102,-0.358887,0.846191
1582293937784228,-0.328613,-0.373535,0.85498
1582293937802233,-0.317383,-0.35498,0.843262
1582293937823139,-0.317383,-0.349121,0.852051
1582293937844073,-0.312988,-0.345703,0.869629
1582293937861828,-0.285156,-0.325195,0.871582
1582293937884769,-0.276367,-0.309082,0.870605
1582293937904193,-0.289063,-0.291016,0.873535
1582293937921872,-0.281738,-0.28125,0.882813
1582293937944837,-0.278809,-0.31543,0.888672
1582293937964551,-0.273926,-0.312012,0.875977
1582293937982369,-0.275879,-0.289063,0.89502
1582293938004444,-0.285156,-0.289551,0.886719
1582293938024389,-0.295898,-0.248535,0.893555
1582293938042364,-0.308594,-0.23291,0.881348
1582293938065290,-0.313965,-0.232422,0.882813
1582293938084563,-0.328613,-0.219238,0.87793
1582293938102236,-0.317871,-0.228516,0.894043
1582293938124123,-0.285156,-0.212402,0.905762
1582293938144462,-0.23877,-0.200684,0.883789
1582293938162093,-0.20166,-0.171875,0.911133
1582293938191944,-0.177246,-0.147949,0.931641
1582293938204126,-0.169922,-0.158203,0.926758
1582293938222363,-0.166992,-0.124023,0.942871
1582293938244801,-0.16748,-0.105957,0.926758
1582293938264148,-0.172363,-0.102051,0.925781
1582293938281703,-0.194336,-0.12207,0.946289
1582293938305024,-0.229492,-0.171875,0.916992
1582293938324592,-0.238281,-0.200195,0.916016
1582293938341543,-0.211426,-0.241211,0.92334
1582293938364482,-0.213867,-0.282227,0.92334
1582293938384629,-0.248047,-0.312012,0.922363
1582293938402378,-0.257813,-0.285645,0.90332
1582293938423498,-0.245605,-0.275391,0.898438
1582293938444746,-0.277832,-0.29541,0.879883
1582293938461277,-0.286621,-0.320313,0.885254
1582293938483382,-0.267578,-0.329102,0.88623
1582293938505262,-0.262207,-0.333496,0.867676
1582293938521107,-0.272461,-0.340332,0.861816
1582293938544001,-0.283691,-0.349609,0.866211
1582293938565163,-0.288086,-0.344238,0.868164
1582293938581899,-0.287598,-0.334961,0.860352
1582293938603897,-0.292969,-0.317871,0.862793
1582293938625048,-0.312012,-0.310547,0.867676
1582293938640742,-0.320801,-0.308594,0.864746
1582293938663749,-0.310059,-0.308594,0.869141
1582293938685143,-0.311523,-0.294922,0.870117
1582293938701637,-0.318848,-0.292969,0.869629
1582293938723686,-0.312988,-0.287598,0.865234
1582293938744617,-0.301758,-0.288086,0.874512
1582293938761419,-0.290039,-0.292969,0.871582
1582293938783609,-0.293457,-0.287598,0.874512
1582293938806309,-0.294922,-0.297363,0.880859
1582293938821310,-0.283203,-0.303223,0.883789
1582293938843279,-0.282715,-0.308105,0.880859
1582293938866143,-0.27832,-0.303711,0.887207
1582293938881103,-0.281738,-0.313477,0.881836
1582293938904037,-0.282227,-0.313477,0.880859
1582293938925991,-0.279297,-0.311523,0.879395
1582293938949010,-0.285645,-0.314941,0.875977
1582293938963877,-0.287598,-0.310547,0.870605
1582293938985932,-0.291016,-0.3125,0.870605
1582293939000833,-0.297852,-0.311035,0.875488
1582293939029702,-0.301758,-0.308594,0.875
1582293939052941,-0.301758,-0.311035,0.862793
1582293939060618,-0.297852,-0.30957,0.870605
1582293939083562,-0.294434,-0.307617,0.872559
1582293939112545,-0.288574,-0.302246,0.873535
1582293939120515,-0.293457,-0.299805,0.877441
1582293939143397,-0.295898,-0.29541,0.878418
1582293939166335,-0.29834,-0.30127,0.875488
1582293939187283,-0.295898,-0.300293,0.879883
1582293939203649,-0.290527,-0.305176,0.879883
1582293939226183,-0.288574,-0.300781,0.875977
1582293939240138,-0.291016,-0.292969,0.87793
1582293939264075,-0.293945,-0.294434,0.870605
1582293939287014,-0.291504,-0.297363,0.879395
1582293939307154,-0.287598,-0.303223,0.876465
1582293939323918,-0.293945,-0.307617,0.87793
1582293939346064,-0.291992,-0.304688,0.879395
1582293939367066,-0.293945,-0.307129,0.878906
1582293939384065,-0.291504,-0.305664,0.873535
1582293939412679,-0.29248,-0.305176,0.868164
1582293939427861,-0.288574,-0.303223,0.873047
1582293939443593,-0.292969,-0.301758,0.876953
1582293939466532,-0.295898,-0.298828,0.881348
1582293939487671,-0.29248,-0.299316,0.874023
1582293939503483,-0.288574,-0.30127,0.879395
1582293939526372,-0.287109,-0.299805,0.877441
1582293939547375,-0.290527,-0.302246,0.875977
1582293939563447,-0.292969,-0.29834,0.882324
1582293939586278,-0.291992,-0.294922,0.883301
1582293939607220,-0.290527,-0.295898,0.876953
1582293939624110,-0.296875,-0.299316,0.867676
1582293939646353,-0.290039,-0.295898,0.878906
1582293939667202,-0.288574,-0.296875,0.876953
1582293939682998,-0.290527,-0.292969,0.887207
1582293939706050,-0.291504,-0.293457,0.876465
1582293939728833,-0.289063,-0.290527,0.881348
1582293939743809,-0.288574,-0.294922,0.881836
1582293939765793,-0.291992,-0.292969,0.872559
1582293939788816,-0.291016,-0.296387,0.875977
1582293939803635,-0.290527,-0.293945,0.876953
1582293939826569,-0.293457,-0.293945,0.875
1582293939848515,-0.29248,-0.294922,0.876953
1582293939862879,-0.29248,-0.294922,0.882813
1582293939886460,-0.294434,-0.291016,0.871094
1582293939908569,-0.291992,-0.287109,0.875977
1582293939923312,-0.294922,-0.291016,0.876465
1582293939946299,-0.290039,-0.291016,0.871094
1582293939968374,-0.296875,-0.289551,0.872559
1582293939983406,-0.298828,-0.291992,0.877441
1582293940006098,-0.29541,-0.290039,0.879395
1582293940029027,-0.29248,-0.291504,0.876465
1582293940042990,-0.29248,-0.29248,0.879395
1582293940065931,-0.29541,-0.29541,0.874512
1582293940088868,-0.289551,-0.29248,0.884277
1582293940102831,-0.294434,-0.296875,0.884766
1582293940125810,-0.291992,-0.29834,0.875
1582293940148762,-0.282715,-0.291504,0.87207
1582293940162868,-0.286621,-0.286133,0.883789
1582293940186532,-0.297363,-0.284668,0.886719
1582293940208550,-0.296387,-0.283203,0.871582
1582293940222685,-0.294434,-0.276855,0.876465
1582293940246498,-0.29541,-0.28125,0.877441
1582293940268389,-0.29248,-0.289063,0.882324
1582293940289495,-0.288086,-0.283691,0.884277
1582293940306440,-0.288574,-0.271973,0.870117
1582293940328289,-0.297852,-0.279785,0.876953
1582293940349740,-0.300781,-0.290527,0.887207
1582293940366131,-0.293945,-0.292969,0.882813
1582293940389065,-0.291992,-0.289551,0.872559
1582293940411006,-0.294434,-0.281738,0.878906
1582293940425970,-0.293457,-0.287598,0.883301
1582293940448903,-0.288086,-0.283691,0.882813
1582293940470236,-0.29541,-0.287598,0.879395
1582293940485806,-0.294922,-0.280762,0.880371
1582293940508745,-0.291992,-0.279785,0.882324
1582293940529745,-0.287109,-0.283203,0.875977
1582293940545848,-0.296387,-0.28125,0.880371
1582293940568962,-0.29541,-0.28125,0.878418
1582293940589768,-0.294434,-0.274902,0.875
1582293940606482,-0.290039,-0.276855,0.875977
1582293940628422,-0.293457,-0.289063,0.879395
1582293940649374,-0.29248,-0.287598,0.881348
1582293940666378,-0.29541,-0.282715,0.87793
1582293940688322,-0.294434,-0.282227,0.879395
1582293940711207,-0.290039,-0.285156,0.882813
1582293940726163,-0.293457,-0.285156,0.882813
1582293940748414,-0.290039,-0.282715,0.884766
1582293940771057,-0.29834,-0.279297,0.882324
1582293940792139,-0.291992,-0.281738,0.883301
1582293940808943,-0.287598,-0.288086,0.881348
1582293940831121,-0.291016,-0.284668,0.883301
1582293940853820,-0.29541,-0.282715,0.885254
1582293940868834,-0.307129,-0.281738,0.883789
1582293940890721,-0.304688,-0.273926,0.885742
1582293940905695,-0.29541,-0.262695,0.893066
1582293940928672,-0.322754,-0.27002,0.887695
1582293940951561,-0.366699,-0.269043,0.868164
1582293940972556,-0.369629,-0.28125,0.871582
1582293940988472,-0.377441,-0.375,0.864746
1582293941011403,-0.385254,-0.410156,0.873535
1582293941032501,-0.362793,-0.368652,0.858398
1582293941048561,-0.249023,-0.348633,0.817871
1582293941071297,-0.123047,-0.313477,0.831543
1582293941092372,-0.105469,-0.375,0.870605
1582293941116416,-0.185059,-0.422852,0.839355
1582293941131343,-0.227539,-0.418457,0.859863
1582293941152228,-0.225098,-0.458008,0.845215
1582293941169028,-0.192383,-0.44873,0.865723
1582293941191091,-0.185059,-0.434082,0.864258
1582293941212005,-0.162598,-0.412109,0.868652
1582293941228818,-0.144043,-0.362793,0.87207
1582293941250821,-0.108887,-0.303223,0.922852
1582293941272064,-0.124512,-0.25,0.885254
1582293941288884,-0.14502,-0.259277,0.882324
1582293941310838,-0.135742,-0.316895,0.899902
1582293941332778,-0.126465,-0.365234,0.928223
1582293941348679,-0.134766,-0.373047,0.914551
1582293941370613,-0.148438,-0.351074,0.900879
1582293941392744,-0.164063,-0.34375,0.903809
1582293941408561,-0.182129,-0.344727,0.899414
1582293941431459,-0.195801,-0.350098,0.898926
1582293941452592,-0.189453,-0.361328,0.885742
1582293941468574,-0.182129,-0.365723,0.880371
1582293941491346,-0.189941,-0.376953,0.880859
1582293941512447,-0.206543,-0.381836,0.875488
1582293941528349,-0.210938,-0.380371,0.869629
1582293941551300,-0.195313,-0.373535,0.869141
1582293941572449,-0.197754,-0.37793,0.869141
1582293941588210,-0.197754,-0.367676,0.872559
1582293941611131,-0.205078,-0.347168,0.87207
1582293941634068,-0.206543,-0.324219,0.876953
1582293941649026,-0.199219,-0.317871,0.883789
1582293941671347,-0.193848,-0.336914,0.889648
1582293941693904,-0.196289,-0.346191,0.890137
1582293941708866,-0.220703,-0.389648,0.875
1582293941731094,-0.229492,-0.403809,0.892578
1582293941753796,-0.216797,-0.368652,0.896484
1582293941768714,-0.23877,-0.338379,0.869629
1582293941791649,-0.263672,-0.307129,0.870605
1582293941796632,-0.267578,-0.311035,0.878418
1582293941819788,-0.256348,-0.321289,0.885254
1582293941842692,-0.253418,-0.321289,0.887695
1582293941856591,-0.251953,-0.310059,0.878906
1582293941882401,-0.233398,-0.306152,0.882324
1582293941894574,-0.223633,-0.316406,0.883789
1582293941916461,-0.222656,-0.319824,0.88623
1582293941956207,-0.224609,-0.318359,0.890137
1582293941958203,-0.22168,-0.322266,0.887695
1582293941977205,-0.215332,-0.324219,0.888672
1582293941999292,-0.216309,-0.322754,0.885742
1582293942014255,-0.212402,-0.322266,0.895996
1582293942036988,-0.205566,-0.321777,0.900879
1582293942059129,-0.206543,-0.32959,0.891602
1582293942076880,-0.204102,-0.32959,0.896484
1582293942104807,-0.206055,-0.327148,0.895508
1582293942119766,-0.195801,-0.322266,0.899902
1582293942134257,-0.194336,-0.326172,0.902344
1582293942156714,-0.195801,-0.328125,0.894043
1582293942178609,-0.20459,-0.322266,0.898926
1582293942194629,-0.196289,-0.314453,0.900879
1582293942217048,-0.19043,-0.307129,0.894043
1582293942239454,-0.184082,-0.303223,0.891602
1582293942255413,-0.185059,-0.304688,0.897949
1582293942276865,-0.178223,-0.293945,0.907227
1582293942299512,-0.171875,-0.283203,0.903809
1582293942317294,-0.168457,-0.283691,0.913086
1582293942336651,-0.164551,-0.28125,0.916504
1582293942359326,-0.170898,-0.287109,0.914551
1582293942375144,-0.170898,-0.282227,0.910156
1582293942397084,-0.171875,-0.287109,0.916016
1582293942419192,-0.172852,-0.293457,0.907227
1582293942435919,-0.175781,-0.295898,0.90332
1582293942456862,-0.181152,-0.300781,0.90625
1582293942478948,-0.185547,-0.306641,0.904785
1582293942495759,-0.191406,-0.302734,0.907227
1582293942516858,-0.19043,-0.308594,0.89502
1582293942538967,-0.193848,-0.310059,0.899414
1582293942555857,-0.191895,-0.311035,0.902832
1582293942576742,-0.19043,-0.300293,0.905273
1582293942599586,-0.18457,-0.303223,0.901367
1582293942616849,-0.191406,-0.291992,0.896973
1582293942636834,-0.193359,-0.292969,0.900391
1582293942659325,-0.193359,-0.294922,0.901367
1582293942677275,-0.198242,-0.294434,0.90625
1582293942697256,-0.194336,-0.293945,0.901855
1582293942719307,-0.196777,-0.294434,0.901367
1582293942743097,-0.198242,-0.30127,0.896484
1582293942756078,-0.19043,-0.304688,0.902832
1582293942779237,-0.190918,-0.300781,0.910645
1582293942797386,-0.191406,-0.302246,0.908203
1582293942816904,-0.19873,-0.302734,0.901855
1582293942840836,-0.194336,-0.297363,0.900879
1582293942856804,-0.191406,-0.297852,0.901855
1582293942876941,-0.199707,-0.295898,0.898926
1582293942894691,-0.194336,-0.302246,0.902832
1582293942916755,-0.194824,-0.298828,0.903809
1582293942936805,-0.196777,-0.294434,0.905762
1582293942954531,-0.196777,-0.303223,0.903809
1582293942976484,-0.198242,-0.294434,0.900879
1582293942996840,-0.196777,-0.293457,0.901855
1582293943019418,-0.193359,-0.293945,0.902832
1582293943037322,-0.197266,-0.297363,0.902832
1582293943056371,-0.187988,-0.297852,0.901855
1582293943074214,-0.193359,-0.29834,0.907715
1582293943103186,-0.198242,-0.295898,0.901367
1582293943117158,-0.194824,-0.29834,0.897461
1582293943134906,-0.186035,-0.295898,0.90625
1582293943156995,-0.189453,-0.297363,0.905762
1582293943178118,-0.189941,-0.297852,0.896484
1582293943194123,-0.19043,-0.29834,0.90332
1582293943216989,-0.194824,-0.298828,0.911621
1582293943238121,-0.196777,-0.295898,0.901367
1582293943254740,-0.194824,-0.291504,0.902832
1582293943277263,-0.200195,-0.296875,0.899414
1582293943297986,-0.199707,-0.293457,0.901367
1582293943314570,-0.196289,-0.294922,0.902832
1582293943336509,-0.191895,-0.293945,0.899414
1582293943357814,-0.191895,-0.291992,0.897461
1582293943374409,-0.19043,-0.293457,0.905273
1582293943397362,-0.194824,-0.296875,0.906738
1582293943418334,-0.195801,-0.296387,0.902344
1582293943433654,-0.196289,-0.293945,0.906738
1582293943456190,-0.193359,-0.293945,0.900391
1582293943477337,-0.191895,-0.29834,0.902832
1582293943494091,-0.191895,-0.291992,0.902832
1582293943516034,-0.196777,-0.295898,0.899902
1582293943538967,-0.193359,-0.293457,0.900391
1582293943553927,-0.192871,-0.291992,0.903809
1582293943576125,-0.19043,-0.296387,0.904785
1582293943598871,-0.193359,-0.292969,0.90625
1582293943612776,-0.197266,-0.288574,0.902344
1582293943635905,-0.195801,-0.290039,0.907227
1582293943658667,-0.189941,-0.295898,0.901367
1582293943673607,-0.189941,-0.296875,0.906738
1582293943696548,-0.19043,-0.302734,0.907715
1582293943718510,-0.193359,-0.290039,0.90332
1582293943733448,-0.200684,-0.283203,0.906738
1582293943756393,-0.197266,-0.287598,0.899414
1582293943778358,-0.194336,-0.285645,0.900391
1582293943793288,-0.1875,-0.287598,0.914551
1582293943816279,-0.1875,-0.299316,0.907715
1582293943838177,-0.200684,-0.287109,0.904785
1582293943853177,-0.186523,-0.287598,0.910156
1582293943876071,-0.182617,-0.291992,0.903809
1582293943905991,-0.191895,-0.289063,0.913086
1582293943913024,-0.19043,-0.285645,0.909668
1582293943942083,-0.184082,-0.288086,0.906738
1582293943958845,-0.189453,-0.292969,0.904785
1582293943972806,-0.196777,-0.289063,0.910156
1582293943995745,-0.186035,-0.291016,0.90918
1582293944018684,-0.188965,-0.289551,0.913574
1582293944039639,-0.191895,-0.287109,0.908203
1582293944056584,-0.191406,-0.289063,0.906738
1582293944078530,-0.1875,-0.282227,0.907227
1582293944100120,-0.185547,-0.287109,0.908203
1582293944116422,-0.193848,-0.287598,0.90332
1582293944138617,-0.191895,-0.281738,0.905273
1582293944167284,-0.190918,-0.287109,0.903809
1582293944176342,-0.189453,-0.284668,0.901367
1582293944198204,-0.19043,-0.283691,0.903809
1582293944221251,-0.19043,-0.288086,0.904785
1582293944236370,-0.190918,-0.282227,0.913574
1582293944259040,-0.193359,-0.284668,0.906738
1582293944280040,-0.191895,-0.287109,0.907227
1582293944295948,-0.19043,-0.291016,0.90918
1582293944318888,-0.193848,-0.28418,0.911133
1582293944339823,-0.195313,-0.282715,0.907227
1582293944355892,-0.191406,-0.277344,0.90918
1582293944378723,-0.192871,-0.280273,0.914063
1582293944399710,-0.191895,-0.282227,0.913086
1582293944415877,-0.189453,-0.286133,0.90332
1582293944438703,-0.188965,-0.286621,0.904785
1582293944461500,-0.191895,-0.280273,0.90918
1582293944476505,-0.192383,-0.279297,0.913086
1582293944498400,-0.1875,-0.282227,0.911133
1582293944521340,-0.19043,-0.280273,0.910645
1582293944536300,-0.191406,-0.281738,0.905762
1582293944558480,-0.194336,-0.28125,0.905762
1582293944581183,-0.189453,-0.28418,0.910645
1582293944596140,-0.189941,-0.284668,0.904297
1582293944618194,-0.187012,-0.289551,0.910156
1582293944641022,-0.185547,-0.285156,0.908691
1582293944655979,-0.190918,-0.290039,0.912598
1582293944678918,-0.18457,-0.286133,0.911621
1582293944700865,-0.186523,-0.283203,0.905762
1582293944715817,-0.189453,-0.287109,0.901367
1582293944738759,-0.188477,-0.285645,0.913086
1582293944761386,-0.188965,-0.283203,0.912598
1582293944775660,-0.185547,-0.277832,0.916016
1582293944798598,-0.190918,-0.274414,0.908203
1582293944820740,-0.188965,-0.277344,0.910156
1582293944835524,-0.187012,-0.280273,0.916504
1582293944858437,-0.179199,-0.278809,0.911133
1582293944881382,-0.182129,-0.284668,0.915039
1582293944902372,-0.182617,-0.270508,0.909668
1582293944918279,-0.182617,-0.275391,0.909668
1582293944941362,-0.19043,-0.275879,0.912109
1582293944962515,-0.190918,-0.280273,0.912109
1582293944978260,-0.187012,-0.285156,0.910156
1582293945001061,-0.183105,-0.287109,0.915039
1582293945022014,-0.179688,-0.288574,0.912109
1582293945039069,-0.182617,-0.288086,0.909668
1582293945060908,-0.183594,-0.286621,0.907715
1582293945082049,-0.189453,-0.281738,0.90918
1582293945099028,-0.187012,-0.280273,0.907227
1582293945120799,-0.19043,-0.28125,0.911621
1582293945142681,-0.189453,-0.279785,0.910645
1582293945158635,-0.185059,-0.277832,0.914063
1582293945180791,-0.185059,-0.279297,0.907715
1582293945202566,-0.1875,-0.284668,0.914063
1582293945218480,-0.182617,-0.279297,0.906738
1582293945241413,-0.187012,-0.281738,0.906738
1582293945262551,-0.186035,-0.286621,0.912109
1582293945278317,-0.195313,-0.282227,0.908691
1582293945301310,-0.19043,-0.282715,0.909668
1582293945322201,-0.182129,-0.287109,0.919434
1582293945338168,-0.182617,-0.278809,0.904785
1582293945361307,-0.187012,-0.272461,0.907715
1582293945382041,-0.188965,-0.270508,0.90625
1582293945398054,-0.1875,-0.275391,0.90625
1582293945421223,-0.191406,-0.277832,0.904785
1582293945443871,-0.186523,-0.273926,0.912109
1582293945458832,-0.188965,-0.27832,0.90625
1582293945480834,-0.186523,-0.27832,0.904297
1582293945503765,-0.193848,-0.278809,0.901855
1582293945532934,-0.195801,-0.277344,0.906738
1582293945540845,-0.194824,-0.276367,0.907227
1582293945563855,-0.194336,-0.281738,0.90625
1582293945577563,-0.19043,-0.273438,0.913574
1582293945601580,-0.195313,-0.277344,0.915527
1582293945623390,-0.19043,-0.270996,0.905273
1582293945638363,-0.193359,-0.270996,0.910645
1582293945661296,-0.195801,-0.277344,0.909668
1582293945683446,-0.19043,-0.274902,0.907227
1582293945698193,-0.191406,-0.27002,0.905273
1582293945721184,-0.196777,-0.276367,0.906738
1582293945744069,-0.192383,-0.274414,0.914063
1582293945765029,-0.189453,-0.278809,0.909668
1582293945780977,-0.194336,-0.276367,0.916016
1582293945803983,-0.195801,-0.277832,0.911133
1582293945817871,-0.195801,-0.269043,0.908203
1582293945840850,-0.192871,-0.275391,0.907715
1582293945863798,-0.191895,-0.276855,0.908203
1582293945877711,-0.188477,-0.269043,0.908203
1582293945900855,-0.196777,-0.273926,0.908691
1582293945923643,-0.19873,-0.272949,0.909668
1582293945944591,-0.195801,-0.269531,0.911133
1582293945967660,-0.198242,-0.276855,0.916016
1582293945983631,-0.193359,-0.276367,0.908691
1582293946004417,-0.192383,-0.27832,0.912109
1582293946021336,-0.195313,-0.276855,0.912598
1582293946043496,-0.189941,-0.277832,0.906738
1582293946065268,-0.196289,-0.273926,0.909668
1582293946081173,-0.191895,-0.270508,0.90625
1582293946110251,-0.192383,-0.272461,0.899902
1582293946125204,-0.194336,-0.270996,0.911621
1582293946141012,-0.190918,-0.272461,0.909668
1582293946164002,-0.189941,-0.270508,0.913574
1582293946185087,-0.192383,-0.271484,0.913574
1582293946200847,-0.193848,-0.274414,0.912598
1582293946223784,-0.192871,-0.270508,0.908203
1582293946244784,-0.191895,-0.273438,0.907227
1582293946260854,-0.192871,-0.271973,0.913086
1582293946283681,-0.195313,-0.275391,0.914551
1582293946304880,-0.195313,-0.270996,0.906738
1582293946321536,-0.192871,-0.270508,0.915527
1582293946343470,-0.194824,-0.273926,0.90918
1582293946366403,-0.194824,-0.270508,0.907715
1582293946388474,-0.192871,-0.272949,0.90918
1582293946403305,-0.197754,-0.275879,0.908691
1582293946426253,-0.194824,-0.279297,0.90918
1582293946441208,-0.188965,-0.271484,0.908691
1582293946463387,-0.194336,-0.272461,0.902344
1582293946486418,-0.192871,-0.273438,0.911133
1582293946501105,-0.192383,-0.275879,0.909668
1582293946523983,-0.191895,-0.275391,0.913574
1582293946545924,-0.190918,-0.272949,0.910156
1582293946560894,-0.195801,-0.272461,0.908691
1582293946583834,-0.193848,-0.267578,0.907715
1582293946605761,-0.195801,-0.275391,0.912598
1582293946628762,-0.19873,-0.279297,0.909668
1582293946643663,-0.195313,-0.276367,0.907227
1582293946665609,-0.191406,-0.277832,0.908691
1582293946680603,-0.189941,-0.276367,0.912598
1582293946703731,-0.192871,-0.277344,0.908691
1582293946726440,-0.196289,-0.274902,0.908691
1582293946740413,-0.195313,-0.269531,0.910645
1582293946763390,-0.192871,-0.272461,0.910645
1582293946786330,-0.190918,-0.272949,0.90332
1582293946800253,-0.194336,-0.267578,0.909668
1582293946808227,-0.19873,-0.276855,0.909668
1582293946829447,-0.196289,-0.271484,0.912109
1582293946851310,-0.191895,-0.275879,0.916016
1582293946868117,-0.185059,-0.277832,0.910645
1582293946889003,-0.187012,-0.277832,0.913574
1582293946911945,-0.192871,-0.276855,0.909668
1582293946927968,-0.190918,-0.278809,0.911621
1582293946949042,-0.194336,-0.274414,0.905762
1582293946971866,-0.188965,-0.277344,0.906738
1582293946988038,-0.186035,-0.279297,0.90918
1582293947008903,-0.187012,-0.273438,0.907715
1582293947031828,-0.191895,-0.274902,0.910645
1582293947047584,-0.200684,-0.269531,0.911133
1582293947071944,-0.191406,-0.268066,0.913574
1582293947091610,-0.185059,-0.274414,0.910645
1582293947107908,-0.186035,-0.277344,0.912109
1582293947129596,-0.187012,-0.271973,0.913086
1582293947151534,-0.190918,-0.274414,0.914063
1582293947168312,-0.191895,-0.274902,0.911133
1582293947189567,-0.194824,-0.274902,0.911133
1582293947211145,-0.19043,-0.275391,0.910645
1582293947228098,-0.187012,-0.279297,0.910156
1582293947249044,-0.188965,-0.278809,0.90918
1582293947271806,-0.1875,-0.277832,0.913574
1582293947288164,-0.185059,-0.277832,0.908691
1582293947309122,-0.188477,-0.280273,0.90918
1582293947332062,-0.189941,-0.278809,0.910645
1582293947356893,-0.187988,-0.280762,0.910645
1582293947368954,-0.191406,-0.277832,0.910645
1582293947394661,-0.192871,-0.274414,0.914063
1582293947409664,-0.188477,-0.279297,0.90918
1582293947428619,-0.188477,-0.277832,0.913086
1582293947459537,-0.185059,-0.274414,0.911621
1582293947474487,-0.182617,-0.274902,0.913574
1582293947489406,-0.186523,-0.274902,0.908691
1582293947511701,-0.18457,-0.277344,0.909668
1582293947537279,-0.183105,-0.27832,0.90918
1582293947549434,-0.187012,-0.279297,0.907227
1582293947571449,-0.186523,-0.280273,0.914551
1582293947589136,-0.182617,-0.280273,0.910156
1582293947609314,-0.186035,-0.276367,0.909668
1582293947633087,-0.191895,-0.279297,0.909668
1582293947653957,-0.185547,-0.280273,0.911621
1582293947669115,-0.186035,-0.279297,0.912109
1582293947693852,-0.189941,-0.27832,0.914551
1582293947709809,-0.188477,-0.279785,0.910645
1582293947729102,-0.191406,-0.277344,0.908691
1582293947751924,-0.185547,-0.274414,0.90625
1582293947769647,-0.194824,-0.274414,0.90625
1582293947792141,-0.193848,-0.279785,0.908691
1582293947811808,-0.189453,-0.273438,0.908203
1582293947829486,-0.185547,-0.273438,0.913574
1582293947849597,-0.18457,-0.272949,0.908203
1582293947871562,-0.188477,-0.27002,0.909668
1582293947889328,-0.186523,-0.268555,0.910156
1582293947909501,-0.189941,-0.279297,0.910156
1582293947931358,-0.190918,-0.276855,0.914063
1582293947949184,-0.185059,-0.280762,0.911621
1582293947970187,-0.188965,-0.273926,0.911621
1582293947991254,-0.1875,-0.270508,0.912598
1582293948009438,-0.191895,-0.274414,0.914551
1582293948030165,-0.189941,-0.278809,0.916992
1582293948059090,-0.19043,-0.272949,0.913086
1582293948069845,-0.191895,-0.268066,0.909668
1582293948090791,-0.19043,-0.270996,0.910645
1582293948111977,-0.192871,-0.275879,0.911133
1582293948129684,-0.187988,-0.269043,0.911133
1582293948150696,-0.195313,-0.273926,0.917969
1582293948171694,-0.191406,-0.272461,0.914063
1582293948189526,-0.187988,-0.273438,0.905762
1582293948210521,-0.186035,-0.274414,0.905762
1582293948231469,-0.1875,-0.274414,0.911133
1582293948249365,-0.188965,-0.272949,0.912109
1582293948271308,-0.193848,-0.267578,0.915527
1582293948293247,-0.191406,-0.271484,0.918945
1582293948309212,-0.187012,-0.270996,0.908691
1582293948332366,-0.1875,-0.274902,0.911133
1582293948351322,-0.189941,-0.271973,0.914551
1582293948369308,-0.19043,-0.271973,0.905273
1582293948391984,-0.186523,-0.272461,0.916016
1582293948406942,-0.185059,-0.270996,0.917969
1582293948428884,-0.183105,-0.26709,0.912109
1582293948450907,-0.186523,-0.272461,0.908691
1582293948471908,-0.192871,-0.269043,0.914063
1582293948488723,-0.192383,-0.269043,0.914063
1582293948510948,-0.194336,-0.268066,0.911621
1582293948532655,-0.186523,-0.26709,0.907227
1582293948548569,-0.193848,-0.267578,0.907227
1582293948571503,-0.192383,-0.271484,0.911621
1582293948585575,-0.183594,-0.269043,0.916992
1582293948608406,-0.19043,-0.270508,0.916504
1582293948631398,-0.191895,-0.269531,0.91748
1582293948645310,-0.187988,-0.268555,0.916992
1582293948668249,-0.189941,-0.271484,0.913086
1582293948691198,-0.194824,-0.272461,0.908203
1582293948705259,-0.192871,-0.274414,0.914551
1582293948728473,-0.193359,-0.26709,0.914551
1582293948751311,-0.191406,-0.263672,0.91748
1582293948772029,-0.19043,-0.268066,0.912109
1582293948788921,-0.186035,-0.274902,0.914551
1582293948810862,-0.188965,-0.268066,0.918457
1582293948831952,-0.192871,-0.264648,0.912109
1582293948848761,-0.19043,-0.267578,0.90918
1582293948870872,-0.191895,-0.269043,0.919922
1582293948892693,-0.190918,-0.268066,0.909668
1582293948908921,-0.189941,-0.266113,0.908203
1582293948931542,-0.192383,-0.27002,0.910156
1582293948952547,-0.188965,-0.274414,0.911133
1582293948969495,-0.187988,-0.269043,0.913574
1582293948991380,-0.186523,-0.269043,0.911621
1582293949012553,-0.194824,-0.267578,0.906738
1582293949028603,-0.191895,-0.263672,0.908691
1582293949051516,-0.1875,-0.264648,0.910156
1582293949072217,-0.196289,-0.270996,0.913086
1582293949088341,-0.192383,-0.27002,0.911621
1582293949111418,-0.194336,-0.26709,0.910645
1582293949132366,-0.1875,-0.268066,0.912109
1582293949148999,-0.185547,-0.273438,0.914063
1582293949171067,-0.195801,-0.27002,0.910645
1582293949192043,-0.189453,-0.271484,0.916992
1582293949208798,-0.191895,-0.269043,0.906738
1582293949230783,-0.187988,-0.270508,0.908691
1582293949253746,-0.190918,-0.266113,0.910645
1582293949268706,-0.193848,-0.270508,0.913086
1582293949290781,-0.19043,-0.26709,0.918945
1582293949313520,-0.189941,-0.269531,0.914551
1582293949328477,-0.189941,-0.266113,0.91748
1582293949351451,-0.192383,-0.268066,0.908203
1582293949373358,-0.192871,-0.270996,0.914063
1582293949388318,-0.181152,-0.269043,0.91748
1582293949411257,-0.188477,-0.269531,0.913574
1582293949433247,-0.186035,-0.26709,0.912109
1582293949448159,-0.185547,-0.265625,0.915527
1582293949471097,-0.192383,-0.268555,0.917969
1582293949494038,-0.192871,-0.267578,0.912109
1582293949508224,-0.192383,-0.268066,0.913574
1582293949531296,-0.189453,-0.265625,0.916504
1582293949553889,-0.186035,-0.268555,0.912109
1582293949567845,-0.181641,-0.268555,0.916504
1582293949590778,-0.19043,-0.269531,0.916016
1582293949613770,-0.191895,-0.267578,0.907227
1582293949628006,-0.185059,-0.266113,0.908691
1582293949650615,-0.186523,-0.268555,0.910645
1582293949673619,-0.185547,-0.266602,0.902344
1582293949687677,-0.196289,-0.266602,0.913574
1582293949718440,-0.186523,-0.266113,0.913574
1582293949733396,-0.186035,-0.263184,0.917969
1582293949754348,-0.18457,-0.270996,0.911621
1582293949771293,-0.1875,-0.270508,0.913574
1582293949793284,-0.186035,-0.266602,0.911133
1582293949815178,-0.186523,-0.269043,0.908691
1582293949831238,-0.187988,-0.269531,0.912598
1582293949853128,-0.187988,-0.280273,0.912598
1582293949875021,-0.186523,-0.27832,0.912109
1582293949890977,-0.183594,-0.270996,0.912109
1582293949913911,-0.18457,-0.270508,0.908691
1582293949935050,-0.187988,-0.271484,0.910156
1582293949951181,-0.18457,-0.268555,0.913574
1582293949973752,-0.180664,-0.269531,0.913574
1582293949994752,-0.18457,-0.272461,0.912109
1582293950010654,-0.187988,-0.271484,0.907227
1582293950033635,-0.18457,-0.268555,0.915527
1582293950054537,-0.1875,-0.270508,0.911621
1582293950071490,-0.185547,-0.271973,0.912598
1582293950093447,-0.183594,-0.270996,0.914063
1582293950114722,-0.188477,-0.268555,0.90918
1582293950131331,-0.1875,-0.263672,0.913086
1582293950153478,-0.181641,-0.267578,0.916016
1582293950176218,-0.18457,-0.271973,0.913574
1582293950191215,-0.18457,-0.271973,0.908691
1582293950213294,-0.189453,-0.267578,0.911621
1582293950236094,-0.196289,-0.269531,0.916016
1582293950250195,-0.190918,-0.270996,0.909668
1582293950273949,-0.19043,-0.268066,0.909668
1582293950295890,-0.188477,-0.264648,0.914063
1582293950310899,-0.186523,-0.26123,0.916992
1582293950334045,-0.183594,-0.254395,0.912598
1582293950355727,-0.174316,-0.263184,0.921387
1582293950370702,-0.173828,-0.264648,0.913086
1582293950393632,-0.181641,-0.258789,0.915039
1582293950415773,-0.187988,-0.26709,0.915039
1582293950438508,-0.187012,-0.263184,0.915039
1582293950453484,-0.193359,-0.270996,0.908691
1582293950476406,-0.192383,-0.275879,0.914063
1582293950490433,-0.193359,-0.274414,0.912109
1582293950521284,-0.193359,-0.274414,0.905762
1582293950536299,-0.19873,-0.273438,0.904785
1582293950551206,-0.192383,-0.273438,0.90332
1582293950573330,-0.197266,-0.267578,0.907227
1582293950596095,-0.194336,-0.258789,0.911133
1582293950610197,-0.189941,-0.258789,0.92041
1582293950633985,-0.188965,-0.255371,0.914063
1582293950656117,-0.19043,-0.259277,0.914551
1582293950676927,-0.192383,-0.256836,0.912598
1582293950693825,-0.188477,-0.260254,0.915527
1582293950715829,-0.191895,-0.26416,0.910645
1582293950736764,-0.195801,-0.265625,0.911133
1582293950753678,-0.197754,-0.268555,0.914551
1582293950775620,-0.189941,-0.268066,0.912109
1582293950797548,-0.188477,-0.270508,0.916992
1582293950813509,-0.194336,-0.26416,0.914063
1582293950843426,-0.195801,-0.266113,0.915527
1582293950857385,-0.195801,-0.262207,0.914551
1582293950873529,-0.196289,-0.260742,0.90918
1582293950896282,-0.193848,-0.261719,0.910156
1582293950918585,-0.195801,-0.260254,0.915039
1582293950933524,-0.194824,-0.253418,0.918457
1582293950956357,-0.195801,-0.254883,0.91748
1582293950977070,-0.192871,-0.253418,0.917969
1582293950994023,-0.193359,-0.258789,0.913574
1582293951015968,-0.188965,-0.258789,0.914063
1582293951037218,-0.196289,-0.259766,0.91748
1582293951054036,-0.197266,-0.260254,0.913086
1582293951075803,-0.194824,-0.257813,0.916992
1582293951097746,-0.191406,-0.258301,0.927246
1582293951113758,-0.194824,-0.258789,0.91748
1582293951135643,-0.202637,-0.255859,0.898926
1582293951158636,-0.19873,-0.258789,0.912598
1582293951173605,-0.192383,-0.266602,0.927734
1582293951196480,-0.192871,-0.261719,0.922852
1582293951219421,-0.197266,-0.254883,0.90625
1582293951233570,-0.208008,-0.25293,0.902832
1582293951256319,-0.199707,-0.260254,0.914063
1582293951284446,-0.193848,-0.275879,0.919434
1582293951293222,-0.199219,-0.256836,0.907227
1582293951316217,-0.195313,-0.234863,0.907715
1582293951338104,-0.195313,-0.254395,0.911133
1582293951353075,-0.197266,-0.262695,0.914551
1582293951376045,-0.188477,-0.268066,0.917969
1582293951398989,-0.194824,-0.23877,0.922852
1582293951412907,-0.202637,-0.243652,0.916016
1582293951436046,-0.185547,-0.262207,0.908691
1582293951458777,-0.202637,-0.244141,0.912598
1582293951480047,-0.198242,-0.253418,0.90332
1582293951496679,-0.189453,-0.254883,0.92334
1582293951518680,-0.186035,-0.253418,0.92041
1582293951532866,-0.199219,-0.256348,0.908691
1582293951556516,-0.197266,-0.255371,0.913086
1582293951578778,-0.199707,-0.272949,0.911621
1582293951599594,-0.195313,-0.272949,0.92041
1582293951616356,-0.206543,-0.269531,0.908203
1582293951638457,-0.204102,-0.27002,0.896973
1582293951659450,-0.186523,-0.253418,0.925781
1582293951676196,-0.189941,-0.246094,0.907715
1582293951698154,-0.209961,-0.262695,0.906738
1582293951720078,-0.206543,-0.26123,0.921387
1582293951736092,-0.176758,-0.22998,0.929199
1582293951758974,-0.163086,-0.249023,0.91748
1582293951779943,-0.203613,-0.258789,0.902832
1582293951795881,-0.211914,-0.256348,0.921387
1582293951818876,-0.195801,-0.266113,0.910645
1582293951823799,-0.196289,-0.275391,0.912598
1582293951846933,-0.194336,-0.26416,0.928223
1582293951861932,-0.184082,-0.271484,0.905273
1582293951884108,-0.204102,-0.274902,0.912109
1582293951907013,-0.20166,-0.255859,0.916016
1582293951921539,-0.192871,-0.286133,0.904785
1582293951944478,-0.195801,-0.277832,0.909668
1582293951966662,-0.227539,-0.272461,0.900391
1582293951981838,-0.232422,-0.265137,0.881348
1582293952011304,-0.200195,-0.262207,0.910645
1582293952026410,-0.192871,-0.262207,0.933105
1582293952041699,-0.200195,-0.244629,0.912109
1582293952065156,-0.199219,-0.232422,0.895996
1582293952082130,-0.20459,-0.243652,0.907227
1582293952102188,-0.20459,-0.251465,0.925293
1582293952124425,-0.19873,-0.255859,0.916016
1582293952141951,-0.205566,-0.255859,0.898438
1582293952161897,-0.205566,-0.259277,0.896973
1582293952184044,-0.206055,-0.276855,0.905762
1582293952202277,-0.208008,-0.27002,0.917969
1582293952221795,-0.206543,-0.257813,0.918457
1582293952243972,-0.208984,-0.240723,0.911621
1582293952261636,-0.203125,-0.233398,0.91748
1582293952281796,-0.188477,-0.211914,0.922852
1582293952304310,-0.210449,-0.228516,0.910645
1582293952323466,-0.233398,-0.270508,0.911133
1582293952341822,-0.214355,-0.298828,0.916016
1582293952364529,-0.194336,-0.300293,0.924805
1582293952389634,-0.208984,-0.250488,0.915039
1582293952401401,-0.213867,-0.228027,0.899902
1582293952424386,-0.212402,-0.229004,0.907227
1582293952442154,-0.214355,-0.230957,0.915039
1582293952462152,-0.211914,-0.239258,0.915039
1582293952484269,-0.202148,-0.234375,0.912598
1582293952501996,-0.197754,-0.237793,0.91748
1582293952521932,-0.194824,-0.235352,0.916016
1582293952544025,-0.201172,-0.235352,0.925781
1582293952561827,-0.200684,-0.25,0.916016
1582293952581979,-0.200195,-0.254395,0.912598
1582293952603904,-0.208984,-0.249023,0.917969
1582293952621667,-0.216309,-0.244141,0.914063
1582293952641848,-0.211914,-0.241211,0.915527
1582293952663763,-0.207031,-0.243652,0.915039
1582293952682272,-0.20459,-0.245117,0.924316
1582293952702537,-0.195313,-0.241699,0.919434
1582293952724577,-0.195801,-0.235352,0.916504
1582293952741587,-0.194336,-0.235352,0.908203
1582293952763302,-0.196289,-0.23584,0.913574
1582293952784417,-0.200195,-0.248047,0.924316
1582293952802307,-0.200684,-0.24707,0.924316
1582293952823128,-0.200684,-0.238281,0.911133
1582293952844128,-0.203613,-0.243164,0.916016
1582293952862300,-0.198242,-0.250977,0.91748
1582293952883019,-0.188965,-0.248535,0.914063
1582293952904007,-0.188965,-0.245117,0.914063
1582293952921864,-0.197266,-0.243164,0.921387
1582293952943049,-0.199219,-0.25,0.921875
1582293952963966,-0.200195,-0.250977,0.919434
1582293952987695,-0.193359,-0.250488,0.910645
1582293953004642,-0.187012,-0.250977,0.917969
1582293953023785,-0.191895,-0.250488,0.914063
1582293953049523,-0.192383,-0.248535,0.920898
1582293953064590,-0.196289,-0.244141,0.913086
1582293953084479,-0.192871,-0.241211,0.913086
1582293953102381,-0.187988,-0.246094,0.921875
1582293953124441,-0.191895,-0.246094,0.916504
1582293953144316,-0.192871,-0.240234,0.918457
1582293953162219,-0.197266,-0.236816,0.913574
1582293953184487,-0.196777,-0.25,0.915527
1582293953204114,-0.192871,-0.257324,0.912109
1582293953222083,-0.196777,-0.262207,0.916016
1582293953244685,-0.194824,-0.259277,0.914551
1582293953265125,-0.195313,-0.258301,0.91748
1582293953281901,-0.199707,-0.257324,0.919434
1582293953304845,-0.197754,-0.253418,0.917969
1582293953326785,-0.188965,-0.252441,0.915527
1582293953342363,-0.192383,-0.252441,0.922363
1582293953364738,-0.192383,-0.246582,0.918457
1582293953383791,-0.191895,-0.250488,0.91748
1582293953401835,-0.194824,-0.250488,0.916504
1582293953424519,-0.198242,-0.245605,0.918945
1582293953444543,-0.196777,-0.254883,0.919434
1582293953461419,-0.190918,-0.252441,0.915039
1582293953483360,-0.194336,-0.253418,0.912109
1582293953504897,-0.200684,-0.255371,0.910645
1582293953521258,-0.200684,-0.249512,0.919434
1582293953543203,-0.197754,-0.251465,0.920898
1582293953565227,-0.197754,-0.251953,0.914063
1582293953581144,-0.191895,-0.251953,0.915527
1582293953604045,-0.193359,-0.253418,0.919922
1582293953625198,-0.201172,-0.249512,0.912598
1582293953640944,-0.194336,-0.254395,0.907715
1582293953663877,-0.197266,-0.253418,0.90918
1582293953685020,-0.195801,-0.257324,0.92041
1582293953700839,-0.195313,-0.256836,0.918457
1582293953723718,-0.194824,-0.254883,0.921387
1582293953744666,-0.195313,-0.252441,0.913574
1582293953760840,-0.199219,-0.256836,0.916504
1582293953783869,-0.195313,-0.255371,0.913086
1582293953804502,-0.195801,-0.25,0.918457
1582293953821457,-0.199707,-0.250977,0.914063
1582293953843518,-0.199219,-0.252441,0.911133
1582293953864346,-0.194336,-0.25293,0.917969
1582293953887337,-0.194336,-0.253906,0.915527
1582293953903442,-0.198242,-0.25293,0.909668
1582293953924659,-0.200684,-0.249512,0.911621
1582293953941206,-0.199707,-0.251953,0.919434
1582293953963276,-0.197754,-0.256348,0.914551
1582293953986028,-0.196777,-0.255859,0.914063
1582293954000977,-0.198242,-0.251953,0.913574
1582293954023916,-0.20459,-0.252441,0.915527
1582293954046919,-0.196777,-0.252441,0.913574
1582293954061091,-0.189453,-0.251953,0.916504
1582293954083762,-0.192383,-0.250488,0.915527
1582293954105694,-0.195313,-0.252441,0.914551
1582293954120660,-0.193848,-0.252441,0.914551
1582293954143599,-0.199707,-0.249512,0.916992
1582293954173565,-0.193848,-0.251465,0.92041
1582293954180783,-0.195313,-0.253418,0.912598
1582293954203596,-0.193848,-0.252441,0.914551
1582293954226374,-0.200684,-0.248535,0.913574
1582293954240340,-0.199707,-0.25293,0.916992
1582293954263526,-0.195801,-0.250977,0.915527
1582293954286267,-0.197266,-0.249023,0.913086
1582293954300177,-0.198242,-0.249023,0.916504
1582293954323248,-0.199219,-0.248047,0.916016
1582293954346123,-0.205078,-0.247559,0.909668
1582293954360189,-0.197754,-0.252441,0.906738
1582293954383951,-0.195801,-0.254883,0.924316
1582293954405898,-0.197266,-0.249023,0.916992
1582293954420855,-0.198242,-0.251465,0.913086
1582293954443791,-0.199707,-0.254883,0.911621
1582293954465731,-0.201172,-0.252441,0.914551
1582293954486685,-0.19873,-0.248535,0.910645
1582293954503632,-0.199219,-0.253418,0.91748
1582293954525770,-0.197266,-0.250977,0.913574
1582293954547744,-0.199707,-0.252441,0.916992
1582293954563576,-0.195801,-0.253906,0.916016
1582293954586421,-0.192383,-0.25,0.912109
1582293954607552,-0.19873,-0.248047,0.915527
1582293954623316,-0.197754,-0.250977,0.918457
1582293954646312,-0.195313,-0.250488,0.91748
1582293954667353,-0.196289,-0.250977,0.919922
1582293954683313,-0.197266,-0.250488,0.915039
1582293954706152,-0.20166,-0.249512,0.920898
1582293954727088,-0.19873,-0.253418,0.907227
1582293954743991,-0.202148,-0.251465,0.911621
1582293954766183,-0.201172,-0.251465,0.913086
1582293954786912,-0.199219,-0.246582,0.91748
1582293954803835,-0.19873,-0.248047,0.916504
1582293954825770,-0.195313,-0.248535,0.913086
1582293954847769,-0.195313,-0.25,0.92041
1582293954863933,-0.197266,-0.249512,0.91748
1582293954885861,-0.199219,-0.250488,0.910645
1582293954908553,-0.198242,-0.248047,0.918457
1582293954923513,-0.202637,-0.257324,0.916016
1582293954946447,-0.198242,-0.25293,0.915527
1582293954969386,-0.194824,-0.250977,0.915039
1582293954983544,-0.200195,-0.246582,0.913574
1582293955006287,-0.197266,-0.250977,0.91748
1582293955028228,-0.195801,-0.255859,0.91748
1582293955043411,-0.19873,-0.249023,0.908691
1582293955066183,-0.202148,-0.250488,0.917969
1582293955088114,-0.202637,-0.254883,0.916504
1582293955103038,-0.198242,-0.253418,0.916504
1582293955125972,-0.197266,-0.255371,0.910645
1582293955148951,-0.197754,-0.249512,0.915039
1582293955162919,-0.198242,-0.25293,0.919434
1582293955185819,-0.200195,-0.248047,0.916504
1582293955208746,-0.200684,-0.246582,0.916504
1582293955222830,-0.197266,-0.249512,0.915527
1582293955245694,-0.19873,-0.248047,0.914063
1582293955268653,-0.195313,-0.250977,0.914551
1582293955282971,-0.193359,-0.248047,0.919922
1582293955306484,-0.19873,-0.251953,0.915039
1582293955328439,-0.198242,-0.248047,0.912598
1582293955342570,-0.199707,-0.250977,0.916504
1582293955366322,-0.196289,-0.249512,0.909668
1582293955388264,-0.197754,-0.248535,0.914551
1582293955409615,-0.200195,-0.250977,0.915527
1582293955426209,-0.202148,-0.250488,0.913086
1582293955448165,-0.197266,-0.24707,0.92041
1582293955470045,-0.198242,-0.249512,0.916016
1582293955486499,-0.196777,-0.249023,0.916992
1582293955508942,-0.196289,-0.246582,0.915527
1582293955530085,-0.198242,-0.240723,0.915039
1582293955546931,-0.200195,-0.244141,0.912598
1582293955568793,-0.194824,-0.243652,0.909668
1582293955589927,-0.191406,-0.246094,0.917969
1582293955605731,-0.194336,-0.247559,0.92334
1582293955634755,-0.194336,-0.236328,0.919922
1582293955649767,-0.194336,-0.236328,0.915527
1582293955666565,-0.200195,-0.240723,0.918945
1582293955688666,-0.195801,-0.252441,0.915527
1582293955717603,-0.194336,-0.250488,0.917969
1582293955726360,-0.197266,-0.247559,0.914551
1582293955748301,-0.19873,-0.244629,0.914551
1582293955769255,-0.19873,-0.247559,0.91748
1582293955786199,-0.191406,-0.251465,0.919434
1582293955808141,-0.195801,-0.250977,0.918945
1582293955830095,-0.195801,-0.242676,0.914551
1582293955846096,-0.197266,-0.246094,0.92334
1582293955868368,-0.199219,-0.243164,0.918457
1582293955890924,-0.197266,-0.247559,0.92041
1582293955905888,-0.193359,-0.243164,0.916504
1582293955928873,-0.194336,-0.244629,0.912598
1582293955958739,-0.19873,-0.24707,0.913574
1582293955965749,-0.198242,-0.25,0.916504
1582293955988713,-0.195801,-0.251465,0.916992
1582293956010599,-0.196777,-0.25,0.913574
1582293956025559,-0.193359,-0.248535,0.914063
1582293956049003,-0.193359,-0.250488,0.91748
1582293956071446,-0.195801,-0.250977,0.92334
1582293956085410,-0.197754,-0.249023,0.913086
1582293956108563,-0.194336,-0.247559,0.919434
1582293956131331,-0.192383,-0.254883,0.912109
1582293956145419,-0.192871,-0.25,0.918457
1582293956168225,-0.196777,-0.247559,0.917969
1582293956191171,-0.196777,-0.247559,0.915527
1582293956205179,-0.199707,-0.246582,0.918457
1582293956229058,-0.197266,-0.246094,0.914063
1582293956250961,-0.195313,-0.253906,0.924316
1582293956265366,-0.188477,-0.249023,0.92041
1582293956288855,-0.197266,-0.244629,0.906738
1582293956310797,-0.196777,-0.241699,0.913574
1582293956325758,-0.192383,-0.237305,0.914063
1582293956348752,-0.192383,-0.246582,0.91748
1582293956370641,-0.192383,-0.242188,0.919434
1582293956393837,-0.190918,-0.244629,0.918945
1582293956408588,-0.19873,-0.245117,0.916016
1582293956431473,-0.201172,-0.243652,0.917969
1582293956452476,-0.196777,-0.246094,0.911133
1582293956476356,-0.189941,-0.249023,0.919922
1582293956491312,-0.193359,-0.243164,0.915527
1582293956512451,-0.192383,-0.244629,0.915039
1582293956528270,-0.193848,-0.25,0.918457
1582293956551158,-0.196289,-0.248535,0.913086
1582293956572286,-0.196777,-0.244141,0.911621
1582293956588111,-0.194336,-0.247559,0.916504
1582293956610996,-0.195313,-0.23877,0.917969
1582293956632090,-0.198242,-0.243164,0.916992
1582293956654938,-0.197266,-0.244141,0.918457
1582293956671831,-0.198242,-0.249512,0.920898
1582293956691931,-0.191895,-0.237305,0.915039
1582293956708733,-0.192383,-0.244629,0.914063
1582293956730776,-0.19873,-0.241699,0.919434
1582293956752620,-0.197754,-0.242676,0.913086
1582293956768579,-0.19873,-0.240723,0.915039
1582293956791511,-0.199219,-0.249023,0.913574
1582293956813456,-0.196289,-0.251465,0.914063
1582293956828420,-0.194824,-0.246582,0.922363
1582293956834536,-0.19873,-0.242676,0.923828
1582293956856480,-0.199219,-0.241211,0.913086
1582293956879316,-0.193848,-0.240723,0.915039
1582293956894445,-0.198242,-0.244629,0.914551
1582293956916404,-0.192383,-0.240234,0.916504
1582293956939331,-0.193359,-0.239746,0.92041
1582293956955159,-0.193848,-0.246094,0.921875
1582293956977072,-0.197754,-0.245117,0.92041
1582293956999125,-0.200195,-0.241699,0.916992
1582293957014264,-0.197754,-0.243652,0.920898
1582293957036854,-0.198242,-0.242676,0.915527
1582293957059060,-0.195801,-0.240723,0.91748
1582293957074108,-0.199219,-0.243164,0.91748
1582293957103677,-0.192383,-0.240234,0.916504
1582293957119035,-0.191406,-0.239746,0.91748
1582293957133804,-0.195801,-0.242676,0.921387
1582293957156686,-0.194824,-0.241699,0.918457
1582293957180525,-0.196289,-0.246094,0.910645
1582293957194492,-0.196777,-0.250977,0.915527
1582293957224504,-0.203613,-0.246582,0.915039
1582293957239430,-0.202637,-0.25293,0.910156
1582293957255275,-0.197754,-0.247559,0.92334
1582293957276214,-0.19873,-0.25,0.916504
1582293957299385,-0.196777,-0.251465,0.920898
1582293957314353,-0.194336,-0.25,0.91748
1582293957338218,-0.195801,-0.240723,0.914551
1582293957359131,-0.199219,-0.242676,0.919434
1582293957374090,-0.19873,-0.243164,0.912598
1582293957396938,-0.196777,-0.245117,0.914551
1582293957418887,-0.196777,-0.243652,0.914551
1582293957435822,-0.198242,-0.246582,0.910645
1582293957456911,-0.195313,-0.243652,0.910645
1582293957478870,-0.20166,-0.248047,0.916504
1582293957495627,-0.198242,-0.247559,0.915527
1582293957516797,-0.202148,-0.245117,0.918945
1582293957541503,-0.20166,-0.240723,0.917969
1582293957555501,-0.199219,-0.242676,0.915527
1582293957576801,-0.198242,-0.243652,0.913574
1582293957594397,-0.195313,-0.246094,0.91748
1582293957615320,-0.199219,-0.249512,0.917969
1582293957636627,-0.193848,-0.244629,0.919922
1582293957654208,-0.196777,-0.25,0.915527
1582293957675512,-0.194336,-0.243164,0.918945
1582293957696092,-0.192871,-0.248047,0.918945
1582293957714638,-0.194336,-0.242676,0.913086
1582293957736984,-0.195313,-0.245117,0.916016
1582293957756928,-0.196289,-0.242188,0.917969
1582293957774112,-0.19873,-0.243652,0.921387
1582293957796906,-0.197754,-0.243652,0.916992
1582293957816973,-0.194824,-0.245117,0.916504
1582293957834723,-0.197266,-0.245605,0.922363
1582293957856803,-0.199219,-0.243652,0.91748
1582293957876942,-0.197754,-0.246582,0.916992
1582293957894609,-0.19873,-0.250488,0.919922
1582293957916499,-0.19873,-0.242676,0.914551
1582293957936614,-0.202148,-0.241211,0.915039
1582293957959385,-0.198242,-0.241699,0.918945
1582293957976562,-0.19873,-0.239746,0.922363
1582293957996439,-0.197754,-0.240723,0.910156
1582293958014543,-0.197754,-0.238281,0.914063
1582293958037180,-0.199219,-0.244629,0.918457
1582293958056183,-0.201172,-0.247559,0.921875
1582293958074084,-0.198242,-0.247559,0.912109
1582293958097022,-0.199219,-0.244141,0.916992
1582293958116998,-0.196289,-0.243164,0.921387
1582293958134916,-0.194336,-0.241211,0.914551
1582293958156862,-0.190918,-0.243164,0.916504
1582293958176859,-0.197266,-0.240234,0.916504
1582293958194759,-0.196289,-0.235352,0.916016
1582293958216698,-0.202148,-0.233398,0.915039
1582293958236811,-0.199219,-0.238281,0.922363
1582293958254600,-0.195801,-0.240723,0.924316
1582293958276536,-0.201172,-0.240723,0.918945
1582293958296484,-0.19873,-0.241699,0.92041
1582293958326738,-0.193359,-0.245605,0.918457
1582293958336790,-0.195801,-0.241211,0.915039
1582293958358319,-0.197754,-0.239258,0.915527
1582293958374322,-0.197754,-0.242676,0.919434
1582293958397269,-0.196777,-0.23877,0.915527
1582293958418354,-0.196777,-0.235352,0.919922
1582293958434114,-0.194824,-0.240234,0.919922
1582293958456055,-0.196777,-0.244141,0.923828
1582293958478996,-0.19043,-0.239746,0.914063
1582293958493013,-0.198242,-0.235352,0.916016
1582293958515904,-0.194336,-0.242676,0.920898
1582293958536927,-0.194336,-0.241699,0.916504
1582293958553793,-0.192383,-0.239258,0.914063
1582293958575735,-0.192383,-0.239258,0.91748
1582293958598676,-0.193848,-0.237793,0.914551
1582293958615454,-0.196777,-0.245117,0.919434
1582293958636250,-0.19873,-0.244141,0.919922
1582293958657520,-0.194336,-0.236816,0.912109
1582293958673479,-0.194336,-0.239746,0.913086
1582293958696412,-0.195313,-0.241699,0.92041
1582293958726363,-0.195801,-0.241211,0.921387
1582293958733496,-0.197266,-0.242188,0.916504
1582293958756255,-0.192871,-0.239258,0.910645
1582293958778298,-0.192871,-0.247559,0.912109
1582293958794204,-0.19873,-0.240723,0.915039
1582293958816159,-0.193359,-0.243652,0.916504
1582293958838250,-0.189453,-0.241211,0.918457
1582293958852994,-0.188965,-0.23877,0.914063
1582293958882141,-0.193848,-0.237793,0.914551
1582293958898922,-0.191895,-0.23877,0.916992
1582293958912839,-0.198242,-0.238281,0.916992
1582293958935781,-0.194336,-0.23584,0.920898
1582293958958753,-0.186523,-0.238281,0.916504
1582293958972678,-0.186523,-0.23584,0.916504
1582293959003590,-0.187988,-0.233398,0.92334
1582293959018716,-0.187988,-0.240723,0.928223
1582293959032572,-0.195801,-0.237305,0.924805
1582293959056452,-0.196289,-0.237305,0.911133
1582293959078410,-0.194336,-0.238281,0.918457
1582293959092537,-0.195313,-0.239258,0.92041
1582293959116341,-0.194824,-0.241699,0.914063
1582293959138288,-0.196777,-0.235352,0.922363
1582293959160171,-0.194824,-0.236816,0.924316
1582293959176333,-0.194824,-0.232422,0.919922
1582293959198461,-0.19043,-0.234863,0.92041
1582293959219046,-0.188965,-0.239746,0.916992
1582293959235970,-0.196289,-0.238281,0.918457
1582293959258909,-0.195801,-0.234375,0.920898
1582293959280854,-0.193359,-0.240234,0.913086
1582293959303788,-0.19873,-0.23877,0.918945
1582293959318839,-0.188477,-0.245605,0.91748
1582293959340109,-0.195313,-0.242676,0.916016
1582293959355837,-0.196777,-0.246582,0.915527
1582293959378927,-0.201172,-0.249512,0.92334
1582293959400585,-0.200684,-0.249512,0.912598
1582293959416486,-0.19873,-0.247559,0.914063
1582293959438430,-0.197754,-0.248047,0.921875
1582293959459428,-0.199707,-0.244629,0.913086
1582293959476327,-0.198242,-0.243652,0.918945
1582293959498481,-0.193848,-0.236328,0.91748
1582293959521205,-0.199707,-0.240234,0.915527
1582293959536279,-0.200195,-0.241699,0.914063
1582293959559131,-0.199219,-0.240234,0.92041
1582293959580147,-0.19873,-0.238281,0.915039
1582293959596010,-0.194824,-0.234375,0.916504
1582293959618957,-0.195313,-0.235352,0.924805
1582293959639947,-0.196289,-0.230957,0.921387
1582293959655851,-0.195801,-0.227539,0.91748
1582293959678840,-0.195801,-0.234863,0.916016
1582293959706904,-0.195801,-0.238281,0.92041
1582293959715700,-0.198242,-0.232422,0.919434
1582293959745606,-0.194336,-0.23877,0.919434
1582293959760787,-0.199707,-0.235352,0.914063
1582293959775836,-0.198242,-0.236816,0.917969
1582293959798466,-0.199219,-0.237305,0.919922
1582293959821406,-0.195313,-0.241211,0.919434
1582293959835420,-0.195801,-0.236816,0.92041
1582293959858307,-0.197754,-0.23584,0.914063
1582293959881313,-0.197754,-0.240234,0.921875
1582293959895254,-0.201172,-0.239258,0.916992
1582293959919158,-0.202637,-0.23877,0.914551
1582293959941141,-0.200195,-0.245117,0.915527
1582293959955092,-0.202148,-0.237793,0.920898
1582293959985009,-0.19873,-0.241699,0.919922
1582293960001134,-0.198242,-0.241699,0.916016
1582293960016105,-0.200684,-0.241699,0.921875
1582293960038822,-0.196777,-0.237793,0.923828
1582293960060763,-0.197754,-0.23877,0.915039
1582293960075723,-0.197266,-0.239258,0.921875
1582293960098664,-0.195313,-0.240723,0.918945
1582293960120667,-0.200195,-0.237305,0.919922
1582293960135847,-0.200195,-0.237305,0.91748
1582293960158550,-0.19873,-0.237793,0.916016
1582293960181439,-0.194824,-0.243652,0.923828
1582293960202449,-0.19873,-0.240723,0.916504
1582293960218866,-0.196289,-0.237305,0.92041
1582293960241279,-0.200195,-0.236328,0.917969
1582293960262468,-0.194336,-0.240723,0.916016
1582293960278182,-0.196777,-0.237305,0.92334
1582293960301344,-0.203125,-0.23877,0.920898
1582293960322252,-0.195801,-0.234375,0.913574
1582293960339019,-0.197266,-0.238281,0.916504
1582293960360963,-0.19873,-0.239746,0.914551
1582293960382044,-0.195313,-0.245117,0.917969
1582293960398926,-0.197266,-0.239258,0.918457
1582293960420799,-0.199707,-0.237793,0.919434
1582293960441745,-0.199219,-0.235352,0.90918
1582293960458737,-0.193848,-0.236816,0.921387
1582293960480642,-0.200195,-0.236816,0.916504
1582293960502213,-0.196289,-0.23877,0.917969
1582293960518547,-0.197266,-0.240234,0.918457
1582293960541541,-0.198242,-0.242676,0.916504
1582293960563422,-0.198242,-0.242676,0.915527
1582293960578381,-0.195313,-0.241699,0.915039
1582293960601317,-0.200684,-0.243652,0.916992
1582293960623451,-0.195313,-0.23584,0.916016
1582293960638274,-0.193848,-0.241211,0.925293
1582293960661216,-0.196777,-0.242188,0.922852
1582293960683186,-0.199219,-0.241211,0.916504
1582293960698452,-0.197754,-0.23877,0.922852
1582293960721206,-0.196289,-0.241699,0.92627
1582293960743969,-0.201172,-0.243164,0.916992
1582293960757955,-0.202148,-0.235352,0.915527
1582293960780896,-0.199219,-0.234863,0.921875
1582293960803779,-0.195313,-0.23291,0.918945
1582293960817820,-0.192383,-0.237793,0.922363
1582293960840793,-0.196289,-0.237305,0.916992
1582293960863669,-0.199707,-0.240723,0.921875
1582293960877590,-0.199707,-0.241699,0.91748
1582293960907547,-0.19873,-0.236816,0.924316
1582293960923460,-0.194336,-0.236816,0.92041
1582293960946393,-0.191895,-0.237793,0.92334
1582293960961419,-0.197266,-0.236328,0.921875
1582293960983299,-0.194336,-0.23291,0.913574
1582293960998254,-0.198242,-0.237793,0.916016
1582293961021202,-0.196777,-0.240723,0.915527
1582293961043164,-0.193359,-0.235352,0.916504
1582293961058095,-0.200195,-0.241211,0.914063
1582293961081079,-0.203613,-0.240723,0.913574
1582293961103972,-0.195801,-0.241211,0.921875
1582293961124968,-0.198242,-0.241211,0.920898
1582293961140878,-0.196777,-0.23877,0.919434
1582293961163810,-0.195313,-0.236328,0.918457
1582293961193780,-0.196289,-0.242676,0.916992
1582293961200791,-0.196777,-0.240723,0.915527
1582293961223656,-0.199219,-0.239746,0.914063
1582293961244794,-0.196289,-0.243652,0.911133
1582293961260908,-0.19873,-0.244141,0.909668
1582293961283535,-0.197754,-0.245117,0.916992
1582293961304652,-0.190918,-0.242188,0.92627
1582293961321391,-0.192383,-0.243652,0.914551
1582293961343510,-0.19043,-0.241211,0.919434
1582293961381465,-0.194336,-0.236816,0.916016
1582293961384221,-0.197266,-0.238281,0.916504
1582293961403186,-0.199219,-0.244141,0.916504
1582293961424313,-0.198242,-0.244629,0.920898
1582293961441340,-0.195801,-0.237305,0.916016
1582293961464010,-0.189941,-0.241211,0.916992
1582293961484962,-0.193848,-0.243164,0.920898
1582293961500960,-0.192383,-0.245117,0.916016
1582293961523854,-0.195313,-0.240234,0.918945
1582293961545790,-0.197754,-0.244141,0.920898
1582293961560749,-0.193848,-0.240723,0.918945
1582293961590062,-0.199707,-0.245117,0.917969
1582293961605799,-0.196777,-0.242676,0.921387
1582293961620942,-0.189453,-0.242676,0.921387
1582293961643599,-0.193359,-0.240723,0.915527
1582293961666466,-0.189453,-0.237305,0.917969
1582293961681426,-0.191406,-0.241699,0.919922
1582293961703373,-0.195801,-0.242676,0.919434
1582293961726306,-0.193359,-0.248047,0.920898
1582293961747542,-0.194824,-0.24707,0.917969
1582293961763210,-0.191895,-0.246094,0.921875
1582293961786147,-0.189941,-0.245605,0.920898
1582293961800440,-0.19043,-0.244141,0.924805
1582293961824045,-0.194336,-0.241699,0.918457
1582293961846343,-0.19043,-0.243164,0.92041
1582293961851305,-0.194824,-0.241699,0.917969
1582293961867943,-0.193359,-0.237305,0.91748
1582293961890311,-0.196289,-0.243164,0.912109
1582293961912010,-0.195801,-0.238281,0.921387
1582293961937741,-0.197754,-0.241699,0.92041
1582293961948947,-0.195801,-0.248047,0.921387
1582293961971795,-0.199219,-0.242188,0.922852
1582293961987665,-0.195313,-0.240723,0.921387
1582293962008552,-0.197266,-0.241211,0.915039
1582293962031645,-0.195313,-0.239258,0.916992
1582293962054430,-0.191895,-0.241211,0.922363
1582293962069392,-0.187988,-0.238281,0.917969
1582293962091670,-0.198242,-0.233398,0.912598
1582293962108285,-0.197754,-0.234863,0.922363
1582293962129281,-0.19043,-0.239258,0.922363
1582293962151221,-0.197266,-0.241211,0.91748
1582293962169122,-0.198242,-0.23877,0.922363
1582293962189259,-0.197266,-0.239746,0.916992
1582293962211239,-0.195801,-0.236816,0.918945
1582293962227964,-0.196289,-0.240234,0.918945
1582293962249044,-0.196777,-0.242676,0.92041
1582293962271906,-0.197754,-0.239258,0.921387
1582293962287811,-0.201172,-0.243652,0.913574
1582293962309073,-0.199219,-0.237305,0.914063
1582293962331889,-0.194824,-0.239258,0.916016
1582293962347977,-0.198242,-0.237793,0.919434
1582293962370582,-0.196777,-0.242188,0.921387
1582293962391762,-0.19873,-0.236816,0.919922
1582293962407622,-0.198242,-0.236816,0.923828
1582293962429487,-0.197754,-0.239746,0.915039
1582293962451791,-0.198242,-0.239746,0.925781
1582293962469317,-0.199707,-0.237305,0.917969
1582293962489476,-0.197754,-0.238281,0.91748
1582293962511797,-0.194824,-0.241211,0.919922
1582293962529158,-0.200195,-0.237305,0.912598
1582293962549315,-0.201172,-0.23877,0.918945
1582293962579280,-0.198242,-0.241211,0.916016
1582293962589155,-0.198242,-0.23877,0.919434
1582293962608946,-0.197754,-0.240723,0.918457
1582293962631944,-0.194336,-0.242188,0.92334
1582293962649572,-0.194336,-0.23584,0.915527
1582293962668791,-0.199707,-0.233887,0.916504
1582293962691725,-0.201172,-0.240723,0.916504
1582293962709675,-0.200195,-0.244141,0.916992
1582293962728826,-0.197266,-0.24707,0.914063
1582293962751811,-0.199219,-0.242188,0.92041
1582293962769515,-0.200195,-0.239746,0.91748
1582293962789673,-0.198242,-0.239258,0.91748
1582293962811406,-0.200684,-0.234375,0.909668
1582293962829355,-0.193359,-0.239746,0.919922
1582293962849472,-0.197266,-0.234863,0.916992
1582293962871446,-0.195313,-0.23877,0.92041
1582293962889194,-0.202148,-0.23877,0.919434
1582293962909446,-0.202148,-0.239746,0.910645
1582293962932120,-0.195801,-0.23877,0.909668
1582293962949035,-0.196289,-0.243652,0.919434
1582293962977008,-0.195313,-0.243164,0.918457
1582293962991140,-0.196289,-0.240723,0.91748
1582293963016904,-0.196289,-0.247559,0.919434
1582293963028878,-0.194336,-0.242676,0.922852
1582293963051801,-0.197266,-0.237305,0.916016
1582293963069711,-0.195801,-0.238281,0.916504
1582293963090656,-0.196777,-0.243164,0.920898
1582293963111803,-0.196289,-0.239746,0.920898
1582293963129737,-0.197754,-0.244629,0.916992
1582293963150696,-0.20166,-0.239746,0.919434
1582293963166928,-0.200684,-0.243652,0.92041
1582293963189390,-0.193359,-0.240234,0.918457
1582293963210382,-0.196289,-0.23877,0.92041
1582293963226298,-0.202148,-0.239258,0.914551
1582293963249233,-0.200684,-0.243652,0.922852
1582293963270177,-0.201172,-0.241211,0.922363
1582293963287235,-0.195801,-0.242676,0.912109
1582293963309069,-0.195801,-0.238281,0.913086
1582293963330014,-0.196777,-0.241699,0.924805
1582293963346986,-0.196777,-0.239746,0.918945
1582293963369079,-0.199219,-0.244629,0.914551
1582293963390052,-0.196777,-0.237305,0.915527
1582293963414309,-0.194336,-0.239746,0.921387
1582293963428805,-0.194824,-0.241211,0.922363
1582293963452004,-0.194336,-0.245605,0.922363
1582293963471855,-0.200195,-0.245117,0.913086
1582293963488646,-0.200684,-0.23877,0.924316
1582293963510684,-0.196777,-0.237305,0.91748
1582293963525582,-0.199219,-0.238281,0.918945
1582293963554617,-0.197754,-0.237793,0.921387
1582293963571371,-0.197266,-0.240723,0.92334
1582293963601464,-0.195313,-0.23877,0.921875
1582293963608689,-0.192871,-0.240723,0.915039
1582293963631268,-0.193359,-0.240234,0.916992
1582293963645518,-0.197754,-0.240723,0.923828
1582293963668121,-0.203125,-0.244629,0.915039
1582293963691446,-0.199219,-0.244629,0.915527
1582293963705018,-0.190918,-0.242676,0.92041
1582293963728947,-0.196289,-0.242676,0.920898
1582293963750897,-0.193848,-0.237793,0.916016
1582293963765850,-0.199219,-0.239746,0.917969
1582293963788788,-0.197754,-0.237305,0.921387
1582293963810730,-0.197754,-0.237305,0.914551
1582293963825689,-0.196289,-0.238281,0.92041
1582293963848686,-0.203613,-0.237305,0.922852
1582293963871030,-0.199707,-0.240723,0.915527
1582293963885528,-0.197754,-0.240723,0.92041
1582293963908952,-0.197266,-0.242188,0.916016
1582293963931407,-0.197754,-0.243652,0.915527
1582293963952350,-0.200195,-0.245605,0.92041
1582293963968625,-0.20166,-0.236328,0.917969
1582293963991248,-0.200684,-0.234863,0.924316
1582293964012559,-0.200684,-0.23584,0.922363
1582293964028195,-0.199219,-0.238281,0.918457
1582293964051137,-0.194824,-0.242676,0.922852
1582293964072224,-0.196289,-0.237793,0.918457
1582293964088984,-0.196289,-0.234863,0.920898
1582293964110931,-0.200684,-0.240234,0.916992
1582293964132081,-0.200195,-0.239258,0.916992
1582293964148824,-0.196289,-0.240234,0.915039
1582293964170768,-0.194336,-0.241699,0.92041
1582293964199890,-0.196289,-0.243652,0.918945
1582293964208729,-0.199219,-0.242676,0.921875
1582293964230699,-0.199219,-0.242188,0.915039
1582293964252546,-0.194336,-0.243652,0.910645
1582293964268509,-0.194824,-0.248047,0.916992
1582293964291444,-0.19043,-0.239746,0.915527
1582293964312671,-0.194336,-0.238281,0.917969
1582293964328562,-0.203125,-0.23584,0.914551
1582293964351284,-0.191406,-0.241699,0.919922
1582293964372428,-0.190918,-0.239258,0.919434
1582293964389181,-0.190918,-0.241211,0.913574
1582293964411127,-0.189941,-0.240234,0.921875
1582293964433248,-0.196289,-0.243164,0.919922
1582293964448249,-0.201172,-0.241699,0.921875
1582293964470967,-0.199707,-0.239746,0.919434
1582293964493901,-0.190918,-0.248535,0.913574
1582293964508918,-0.195313,-0.242188,0.911133
1582293964530808,-0.196289,-0.243652,0.915527
1582293964553741,-0.192871,-0.247559,0.921875
1582293964567819,-0.196289,-0.242188,0.91748
1582293964590643,-0.193359,-0.244141,0.919922
1582293964613871,-0.195313,-0.240723,0.919922
1582293964627544,-0.195313,-0.241211,0.921387
1582293964650492,-0.195313,-0.245117,0.916016
1582293964673428,-0.198242,-0.244141,0.916504
1582293964687384,-0.193359,-0.241699,0.91748
1582293964711371,-0.193848,-0.239258,0.922852
1582293964733551,-0.189941,-0.239746,0.919922
1582293964748223,-0.191895,-0.238281,0.919922
1582293964771397,-0.194824,-0.243652,0.91748
1582293964793371,-0.193848,-0.243164,0.917969
1582293964808062,-0.192871,-0.246582,0.915527
1582293964831418,-0.194824,-0.245117,0.923828
1582293964853940,-0.191406,-0.241699,0.916992
1582293964874884,-0.193359,-0.243164,0.919922
1582293964891127,-0.196777,-0.240723,0.914551
1582293964920058,-0.190918,-0.242676,0.916504
1582293964934768,-0.191895,-0.239258,0.914551
1582293964951011,-0.195313,-0.239258,0.914063
1582293964979815,-0.195313,-0.236816,0.913574
1582293964994614,-0.198242,-0.244141,0.921875
1582293965011518,-0.19873,-0.245117,0.915527
1582293965033464,-0.196777,-0.240234,0.916016
1582293965054852,-0.194824,-0.240723,0.920898
1582293965071356,-0.197754,-0.23877,0.921387
1582293965093346,-0.193848,-0.238281,0.916016
1582293965114794,-0.190918,-0.239258,0.913574
1582293965131252,-0.191406,-0.239258,0.922852
1582293965153444,-0.196777,-0.236816,0.912109
1582293965175079,-0.192871,-0.235352,0.919922
1582293965198233,-0.197754,-0.239258,0.920898
1582293965213974,-0.195313,-0.239746,0.914551
1582293965234917,-0.194824,-0.243164,0.914063
1582293965250886,-0.195801,-0.244629,0.915527
1582293965274059,-0.197266,-0.233887,0.912598
1582293965294762,-0.194824,-0.239746,0.921875
1582293965310766,-0.194336,-0.243164,0.919434
1582293965333667,-0.19873,-0.243164,0.926758
1582293965356592,-0.198242,-0.237305,0.920898
1582293965370618,-0.193359,-0.241699,0.921875
1582293965393794,-0.19873,-0.23877,0.922363
1582293965416434,-0.20166,-0.240723,0.920898
1582293965430439,-0.197754,-0.241211,0.917969
1582293965453336,-0.194824,-0.23877,0.917969
1582293965476339,-0.194824,-0.239258,0.922363
1582293965490239,-0.196289,-0.241699,0.92041
1582293965513198,-0.200684,-0.23877,0.916992
1582293965536121,-0.20166,-0.237305,0.919922
1582293965550076,-0.197754,-0.236816,0.916016
1582293965573201,-0.197754,-0.236328,0.91748
1582293965595957,-0.194824,-0.241699,0.920898
1582293965610159,-0.195313,-0.240234,0.92041
1582293965633852,-0.200684,-0.23877,0.922852
1582293965663828,-0.192871,-0.240234,0.911133
1582293965670752,-0.195801,-0.236328,0.915527
1582293965693751,-0.195801,-0.241699,0.914063
1582293965716020,-0.192871,-0.243164,0.917969
1582293965730654,-0.199219,-0.242676,0.921875
1582293965753587,-0.199219,-0.240234,0.916504
1582293965776471,-0.199219,-0.240234,0.923828
1582293965790472,-0.197754,-0.241699,0.92041
1582293965821538,-0.197266,-0.236328,0.918457
1582293965836315,-0.199219,-0.233887,0.918945
1582293965857408,-0.197754,-0.23877,0.912109
1582293965873506,-0.197754,-0.23877,0.916504
1582293965896202,-0.197266,-0.237305,0.916016
1582293965917155,-0.19873,-0.237305,0.918945
1582293965933568,-0.193848,-0.236816,0.916992
1582293965956006,-0.194336,-0.242188,0.917969
1582293965977135,-0.202148,-0.241211,0.919922
1582293965993893,-0.198242,-0.242188,0.914551
1582293966015831,-0.198242,-0.241211,0.915039
1582293966036981,-0.200195,-0.240723,0.92041
1582293966053728,-0.196777,-0.237305,0.919434
1582293966075743,-0.200684,-0.23877,0.919434
1582293966104776,-0.195801,-0.236816,0.91748
1582293966113622,-0.198242,-0.239258,0.921875
1582293966135580,-0.198242,-0.23584,0.922852
1582293966157509,-0.202148,-0.240234,0.918945
1582293966173460,-0.202148,-0.240234,0.917969
1582293966196398,-0.191895,-0.239746,0.914063
1582293966217596,-0.195313,-0.23877,0.916504
1582293966233269,-0.19873,-0.242188,0.92041
1582293966256187,-0.197754,-0.243164,0.916504
1582293966278129,-0.199219,-0.234375,0.911621
1582293966293426,-0.194824,-0.23877,0.922363
1582293966316636,-0.196289,-0.243164,0.914063
1582293966338153,-0.195313,-0.23877,0.916992
1582293966353925,-0.194824,-0.245605,0.918945
1582293966375878,-0.19873,-0.242676,0.916016
1582293966398823,-0.196777,-0.237793,0.925781
1582293966413816,-0.202637,-0.237793,0.925781
1582293966435709,-0.199219,-0.236816,0.918457
1582293966458909,-0.197754,-0.237793,0.916504
1582293966472871,-0.195801,-0.245117,0.919434
1582293966495741,-0.197266,-0.238281,0.92041
1582293966518484,-0.198242,-0.242676,0.918945
1582293966532914,-0.200195,-0.242676,0.919922
1582293966556395,-0.200195,-0.237793,0.916504
1582293966578331,-0.192871,-0.23877,0.921875
1582293966593284,-0.196777,-0.240723,0.918945
1582293966616275,-0.197266,-0.241211,0.918945
1582293966638169,-0.199707,-0.237305,0.918457
1582293966653123,-0.199219,-0.238281,0.919922
1582293966676117,-0.196777,-0.240234,0.918457
1582293966698064,-0.202637,-0.233887,0.920898
1582293966720185,-0.197266,-0.23584,0.918457
1582293966735907,-0.194824,-0.236328,0.920898
1582293966758897,-0.196289,-0.237793,0.911133
1582293966772803,-0.200195,-0.234863,0.916016
1582293966795744,-0.195801,-0.231934,0.92041
1582293966818718,-0.193359,-0.235352,0.919922
1582293966839852,-0.192383,-0.237793,0.921875
1582293966855675,-0.199219,-0.241211,0.916016
1582293966861570,-0.195313,-0.238281,0.921875
1582293966883517,-0.196777,-0.233887,0.919434
1582293966901461,-0.197266,-0.233887,0.915039
1582293966924439,-0.196777,-0.242676,0.916504
1582293966944346,-0.196289,-0.244629,0.914063
1582293966961974,-0.192383,-0.242676,0.914551
1582293966981441,-0.195313,-0.239746,0.920898
1582293967004243,-0.199707,-0.237305,0.916992
1582293967022137,-0.194336,-0.239746,0.918457
1582293967041132,-0.195313,-0.239746,0.917969
1582293967064237,-0.195313,-0.23584,0.911133
1582293967080462,-0.196289,-0.236816,0.918945
1582293967100925,-0.194336,-0.241211,0.916992
1582293967124282,-0.192871,-0.240723,0.915527
1582293967140821,-0.189453,-0.238281,0.922363
1582293967161763,-0.192871,-0.240234,0.919922
1582293967183715,-0.196777,-0.240234,0.915039
1582293967201655,-0.195313,-0.24707,0.918457
1582293967221980,-0.197266,-0.249512,0.918457
1582293967244597,-0.196289,-0.239746,0.919922
1582293967261497,-0.193359,-0.245117,0.917969
1582293967281669,-0.191406,-0.242188,0.917969
1582293967304383,-0.192383,-0.243652,0.924805
1582293967321637,-0.189941,-0.235352,0.917969
1582293967341582,-0.192871,-0.235352,0.916016
1582293967364431,-0.191406,-0.237793,0.919434
1582293967382225,-0.194336,-0.238281,0.917969
1582293967401358,-0.19043,-0.23877,0.916504
1582293967424453,-0.196777,-0.236816,0.919922
1582293967442027,-0.193848,-0.239258,0.921387
1582293967462020,-0.195313,-0.238281,0.924805
1582293967484223,-0.19043,-0.242188,0.922852
1582293967502251,-0.185059,-0.244629,0.922363
1582293967524790,-0.193848,-0.239258,0.918945
1582293967543742,-0.193359,-0.240723,0.916504
1582293967561697,-0.197266,-0.240723,0.919434
1582293967581869,-0.194336,-0.242188,0.919922
1582293967603765,-0.195801,-0.243652,0.920898
1582293967621689,-0.195313,-0.243164,0.924316
1582293967641764,-0.191895,-0.236816,0.921387
1582293967664419,-0.190918,-0.23877,0.913086
1582293967681984,-0.1875,-0.241699,0.919922
1582293967701376,-0.187012,-0.245117,0.922852
1582293967724307,-0.197266,-0.241699,0.919922
1582293967742209,-0.200195,-0.242188,0.918945
1582293967761162,-0.194824,-0.236328,0.912109
1582293967784254,-0.194824,-0.242188,0.919434
1582293967802125,-0.194824,-0.245605,0.913086
1582293967821235,-0.192383,-0.240234,0.919434
1582293967844083,-0.193359,-0.241699,0.919434
1582293967861947,-0.193848,-0.239258,0.927734
1582293967882955,-0.194824,-0.240723,0.919922
1582293967903924,-0.19043,-0.238281,0.918945
1582293967921729,-0.192383,-0.238281,0.914063
1582293967942683,-0.194824,-0.239746,0.923828
1582293967963840,-0.194336,-0.238281,0.916504
1582293967981934,-0.193848,-0.242188,0.919922
1582293968004509,-0.192871,-0.241699,0.916504
1582293968031634,-0.193359,-0.236328,0.918945
1582293968042237,-0.192871,-0.236328,0.923828
1582293968062715,-0.189941,-0.236816,0.918457
1582293968084400,-0.193848,-0.242676,0.916992
1582293968102247,-0.197754,-0.239258,0.916504
1582293968123196,-0.200195,-0.23877,0.923828
1582293968144516,-0.201172,-0.241211,0.92041
1582293968162096,-0.196289,-0.246582,0.918457
1582293968184054,-0.195313,-0.239258,0.916504
1582293968204115,-0.194336,-0.23877,0.912598
1582293968221927,-0.197266,-0.237305,0.92041
1582293968243867,-0.196777,-0.236816,0.917969
1582293968264029,-0.192383,-0.241211,0.915039
1582293968281767,-0.194336,-0.235352,0.919434
1582293968308918,-0.199219,-0.240234,0.916992
1582293968323800,-0.194824,-0.239258,0.920898
1582293968341657,-0.195801,-0.244141,0.918457
1582293968364609,-0.198242,-0.241211,0.919434
1582293968384341,-0.197754,-0.245605,0.912598
1582293968401445,-0.196777,-0.241699,0.919922
1582293968424386,-0.199219,-0.23584,0.913574
1582293968444344,-0.193848,-0.239746,0.915039
1582293968461343,-0.193848,-0.240723,0.918945
1582293968483409,-0.203125,-0.23584,0.918945
1582293968505225,-0.196777,-0.237793,0.915039
1582293968521179,-0.194824,-0.238281,0.917969
1582293968543534,-0.195313,-0.239258,0.918945
1582293968565135,-0.200684,-0.239258,0.915527
1582293968581275,-0.198242,-0.242188,0.916504
1582293968603904,-0.196289,-0.243652,0.919434
1582293968624851,-0.195313,-0.240234,0.917969
1582293968640999,-0.193359,-0.239746,0.915527
1582293968663800,-0.198242,-0.240234,0.918457
1582293968684750,-0.195801,-0.23584,0.919434
1582293968700850,-0.197266,-0.239746,0.912598
1582293968723623,-0.196777,-0.243652,0.913574
1582293968744592,-0.195801,-0.240234,0.921387
1582293968760487,-0.194336,-0.240723,0.92041
1582293968783433,-0.189941,-0.238281,0.917969
1582293968804935,-0.194824,-0.243164,0.918457
1582293968821323,-0.199219,-0.245117,0.919922
1582293968843272,-0.197266,-0.241699,0.92041
1582293968865207,-0.192383,-0.241699,0.920898
1582293968881221,-0.196289,-0.240234,0.918457
1582293968903162,-0.197754,-0.242188,0.913086
1582293968925138,-0.196777,-0.240723,0.920898
1582293968941047,-0.19873,-0.23584,0.915527
1582293968963939,-0.206055,-0.236328,0.911621
1582293968992060,-0.191406,-0.237305,0.921875
1582293969001006,-0.197754,-0.236816,0.922363
1582293969038799,-0.198242,-0.236328,0.914551
1582293969044862,-0.195801,-0.235352,0.916504
1582293969060681,-0.203125,-0.23877,0.92627
1582293969083928,-0.195801,-0.239746,0.915527
1582293969112544,-0.195801,-0.23877,0.922852
1582293969120571,-0.195801,-0.236816,0.919922
1582293969143471,-0.197266,-0.235352,0.916992
1582293969166400,-0.196777,-0.240234,0.917969
1582293969181362,-0.200195,-0.236328,0.92041
1582293969203478,-0.198242,-0.243652,0.925293
1582293969233383,-0.195313,-0.239258,0.919922
1582293969241199,-0.193848,-0.239746,0.914551
1582293969263604,-0.191406,-0.233887,0.91748
1582293969286123,-0.195801,-0.238281,0.919434
1582293969300050,-0.195801,-0.238281,0.917969
1582293969322980,-0.199219,-0.235352,0.914063
1582293969346915,-0.198242,-0.237793,0.914063
1582293969360064,-0.196289,-0.235352,0.918945
1582293969389846,-0.196289,-0.239258,0.922363
1582293969405764,-0.206055,-0.237793,0.919434
1582293969420719,-0.200684,-0.237793,0.919922
1582293969443714,-0.189453,-0.240234,0.919434
1582293969465647,-0.192871,-0.234375,0.914551
1582293969480614,-0.193848,-0.243164,0.918945
1582293969504495,-0.19873,-0.23877,0.92041
1582293969526437,-0.200195,-0.235352,0.919434
1582293969540401,-0.197266,-0.23584,0.914551
1582293969563517,-0.189453,-0.235352,0.914063
1582293969586277,-0.190918,-0.242676,0.918457
1582293969600247,-0.194824,-0.239746,0.919434
1582293969623490,-0.191406,-0.236328,0.920898
1582293969646164,-0.192383,-0.240723,0.916504
1582293969668117,-0.196289,-0.240234,0.916016
1582293969683239,-0.192871,-0.239258,0.924805
1582293969706010,-0.193848,-0.236816,0.919922
1582293969726902,-0.193848,-0.23877,0.922363
1582293969743856,-0.194824,-0.243164,0.920898
1582293969765845,-0.193848,-0.242188,0.917969
1582293969794957,-0.19873,-0.242188,0.917969
1582293969803694,-0.192383,-0.237305,0.92334
1582293969825649,-0.191406,-0.23877,0.921387
1582293969847152,-0.191406,-0.244141,0.922363
1582293969863599,-0.195801,-0.23877,0.914551
1582293969885878,-0.196777,-0.241699,0.925293
1582293969914596,-0.19043,-0.238281,0.92334
1582293969923379,-0.191406,-0.239258,0.914063
1582293969946319,-0.190918,-0.23291,0.919434
1582293969967256,-0.190918,-0.237305,0.919434
1582293969983714,-0.190918,-0.23877,0.918945
1582293970006152,-0.189941,-0.241211,0.919434
1582293970027153,-0.191895,-0.242676,0.921875
1582293970043262,-0.192383,-0.241699,0.924316
1582293970067000,-0.191895,-0.23877,0.914551
1582293970088933,-0.195313,-0.238281,0.91748
1582293970110068,-0.197266,-0.246094,0.919922
1582293970125844,-0.193848,-0.246582,0.925293
1582293970148824,-0.188477,-0.239746,0.918945
1582293970163798,-0.190918,-0.23877,0.92041
1582293970185770,-0.19043,-0.233887,0.920898
1582293970208610,-0.191895,-0.24707,0.920898
1582293970230600,-0.192871,-0.245605,0.91748
1582293970245708,-0.197754,-0.236328,0.907227
1582293970268457,-0.191406,-0.234375,0.918945
1582293970282473,-0.19043,-0.240234,0.91748
1582293970306349,-0.192871,-0.240234,0.918945
1582293970328297,-0.19873,-0.243164,0.920898
1582293970343310,-0.196777,-0.242188,0.924316
1582293970366263,-0.193359,-0.240234,0.916992
1582293970388530,-0.188965,-0.239258,0.914063
1582293970403091,-0.190918,-0.242188,0.917969
1582293970426084,-0.198242,-0.236816,0.919922
1582293970448152,-0.196289,-0.236816,0.92041
1582293970462989,-0.195313,-0.238281,0.918945
1582293970492414,-0.188477,-0.23877,0.91748
1582293970508873,-0.188477,-0.23877,0.916992
1582293970522774,-0.191406,-0.236328,0.916504
1582293970545710,-0.192871,-0.233887,0.914063
1582293970568806,-0.196289,-0.237305,0.917969
1582293970589737,-0.195801,-0.23877,0.920898
1582293970605630,-0.192871,-0.234375,0.915527
1582293970628531,-0.192871,-0.233398,0.916504
1582293970650060,-0.196289,-0.239746,0.918457
1582293970666399,-0.191406,-0.239258,0.919434
1582293970688334,-0.193848,-0.233398,0.922363
1582293970709423,-0.196777,-0.234375,0.915527
1582293970726226,-0.199219,-0.236328,0.918457
1582293970748168,-0.196777,-0.240234,0.915527
1582293970769642,-0.197754,-0.236816,0.923828
1582293970786131,-0.193848,-0.236328,0.921387
1582293970809082,-0.19043,-0.238281,0.915527
1582293970830036,-0.192871,-0.231934,0.927246
1582293970846286,-0.194824,-0.22998,0.923828
1582293970868852,-0.199219,-0.229004,0.916992
1582293970889841,-0.200195,-0.231934,0.918945
1582293970905751,-0.196777,-0.235352,0.918457
1582293970928685,-0.195801,-0.23291,0.917969
1582293970949906,-0.196289,-0.237793,0.921387
1582293970965633,-0.195801,-0.235352,0.912109
1582293970988575,-0.196289,-0.233398,0.918457
1582293971009699,-0.193848,-0.239258,0.925293
1582293971026423,-0.196777,-0.235352,0.92334
1582293971048369,-0.196289,-0.230957,0.917969
1582293971071303,-0.195313,-0.233398,0.91748
1582293971092255,-0.194824,-0.232422,0.92041
1582293971108204,-0.200195,-0.231934,0.91748
1582293971131435,-0.200684,-0.235352,0.913086
1582293971152292,-0.196289,-0.233398,0.922363
1582293971168113,-0.196777,-0.236816,0.921875
1582293971191028,-0.197266,-0.23584,0.915527
1582293971205130,-0.196777,-0.232422,0.91748
1582293971228925,-0.197754,-0.230957,0.922363
1582293971250830,-0.199707,-0.233398,0.913086
1582293971265796,-0.197266,-0.239746,0.922363
1582293971288722,-0.19873,-0.238281,0.916504
1582293971310882,-0.199219,-0.241211,0.92041
1582293971325676,-0.197266,-0.241699,0.919434
1582293971348620,-0.194824,-0.237793,0.919434
1582293971371040,-0.19873,-0.236328,0.920898
1582293971385462,-0.198242,-0.23291,0.922852
1582293971408715,-0.196777,-0.234375,0.922363
1582293971431339,-0.195313,-0.234375,0.914063
1582293971452475,-0.194824,-0.231445,0.917969
1582293971468245,-0.195801,-0.232422,0.920898
1582293971491178,-0.202148,-0.238281,0.919922
1582293971505189,-0.197266,-0.229492,0.918945
1582293971534149,-0.194824,-0.236816,0.92041
1582293971551019,-0.197266,-0.241699,0.918457
1582293971572154,-0.198242,-0.236328,0.916504
1582293971588396,-0.202148,-0.235352,0.919922
1582293971610914,-0.196777,-0.239746,0.916992
1582293971632210,-0.194824,-0.235352,0.91748
1582293971648968,-0.19873,-0.239746,0.915527
1582293971670747,-0.197266,-0.237305,0.915527
1582293971699925,-0.190918,-0.237793,0.92334
1582293971708651,-0.200684,-0.233887,0.917969
1582293971730730,-0.201172,-0.239746,0.925293
1582293971752555,-0.20166,-0.241699,0.921875
1582293971768489,-0.199219,-0.238281,0.917969
1582293971791376,-0.199219,-0.237305,0.918457
1582293971812500,-0.19873,-0.236328,0.919922
1582293971828416,-0.201172,-0.243164,0.919434
1582293971851215,-0.201172,-0.240234,0.917969
1582293971856401,-0.202148,-0.235352,0.91748
1582293971882144,-0.198242,-0.232422,0.918945
1582293971897158,-0.197754,-0.232422,0.924316
1582293971918043,-0.200195,-0.231934,0.919922
1582293971939377,-0.196777,-0.234375,0.919922
1582293971953940,-0.19873,-0.233887,0.919922
1582293971976881,-0.199219,-0.239258,0.925781
1582293971998877,-0.196777,-0.238281,0.92041
1582293972014013,-0.192871,-0.236816,0.919434
1582293972036967,-0.193359,-0.23291,0.92041
1582293972059043,-0.197754,-0.234863,0.919434
1582293972073621,-0.196777,-0.234375,0.920898
1582293972096712,-0.196289,-0.234375,0.922363
1582293972119066,-0.190918,-0.236328,0.91748
1582293972133588,-0.194336,-0.234375,0.916016
1582293972156533,-0.196289,-0.234375,0.919434
1582293972179342,-0.197754,-0.235352,0.919434
1582293972195304,-0.194824,-0.233398,0.916016
1582293972216299,-0.197266,-0.234375,0.921875
1582293972239377,-0.194336,-0.233887,0.913574
1582293972254321,-0.189941,-0.240723,0.922363
1582293972276295,-0.191406,-0.237793,0.924805
1582293972299076,-0.188965,-0.237305,0.920898
1582293972314205,-0.19873,-0.232422,0.91748
1582293972336107,-0.193359,-0.230469,0.915527
1582293972359016,-0.193359,-0.23291,0.92041
1582293972374297,-0.193848,-0.23291,0.915039
1582293972396906,-0.196777,-0.235352,0.919434
1582293972414707,-0.195313,-0.231934,0.91748
1582293972433662,-0.19043,-0.238281,0.922852
1582293972456597,-0.189453,-0.237793,0.918945
1582293972474552,-0.189941,-0.23291,0.919922
1582293972493711,-0.189941,-0.230957,0.914551
1582293972516589,-0.199219,-0.239258,0.914551
1582293972534409,-0.19873,-0.245117,0.922852
1582293972555382,-0.199219,-0.249023,0.922363
1582293972576473,-0.196289,-0.233887,0.922363
1582293972594227,-0.194336,-0.21582,0.916504
1582293972615173,-0.188965,-0.222168,0.917969
1582293972637116,-0.187988,-0.229492,0.928711
1582293972654071,-0.19043,-0.230469,0.918945
1582293972675072,-0.190918,-0.225586,0.91748
1582293972696961,-0.193359,-0.232422,0.916992
1582293972714151,-0.197754,-0.241699,0.916504
1582293972735347,-0.197266,-0.254395,0.922363
1582293972764001,-0.193848,-0.246582,0.914063
1582293972774652,-0.19873,-0.240723,0.913086
1582293972795697,-0.205078,-0.239258,0.922363
1582293972816632,-0.203125,-0.237793,0.927734
1582293972839114,-0.201172,-0.231934,0.918945
1582293972855530,-0.195313,-0.222168,0.916992
1582293972876623,-0.197266,-0.216797,0.919434
1582293972894434,-0.189941,-0.219727,0.931641
1582293972916365,-0.189453,-0.22168,0.929688
1582293972936510,-0.190918,-0.222656,0.919434
1582293972954265,-0.186035,-0.224121,0.931152
1582293972976206,-0.187012,-0.224609,0.919922
1582293972998171,-0.196777,-0.223633,0.918945
1582293973014649,-0.203125,-0.21875,0.918945
1582293973037267,-0.202148,-0.22168,0.920898
1582293973056186,-0.194336,-0.21875,0.922363
1582293973073944,-0.197754,-0.216309,0.92627
1582293973097238,-0.204102,-0.216309,0.92041
1582293973116866,-0.200195,-0.215332,0.917969
1582293973133784,-0.199707,-0.218262,0.92041
1582293973156721,-0.201172,-0.220215,0.92041
1582293973176721,-0.202148,-0.219727,0.919922
1582293973194676,-0.200684,-0.220703,0.921875
1582293973216563,-0.195313,-0.224609,0.928223
1582293973236661,-0.194336,-0.223633,0.923828
1582293973254467,-0.19043,-0.22168,0.919434
1582293973283175,-0.193359,-0.21875,0.91748
1582293973296564,-0.197266,-0.21582,0.929199
1582293973320479,-0.197266,-0.214844,0.931641
1582293973337239,-0.196777,-0.217773,0.92041
1582293973356192,-0.197754,-0.221191,0.918945
1582293973374227,-0.199219,-0.213867,0.927734
1582293973397085,-0.202148,-0.218262,0.929688
1582293973416038,-0.196777,-0.225586,0.92627
1582293973433979,-0.192871,-0.217773,0.930176
1582293973456921,-0.195801,-0.215332,0.918457
1582293973476866,-0.202148,-0.216309,0.922363
1582293973493884,-0.199219,-0.22168,0.919922
1582293973515772,-0.200195,-0.219238,0.925293
1582293973537732,-0.19873,-0.221191,0.92334
1582293973553876,-0.195313,-0.219238,0.922852
1582293973575603,-0.19873,-0.21875,0.924316
1582293973597603,-0.19873,-0.216797,0.92334
1582293973613554,-0.200195,-0.227539,0.925293
1582293973635924,-0.195801,-0.22168,0.92041
1582293973657418,-0.196289,-0.220215,0.925781
1582293973673775,-0.196777,-0.217773,0.920898
1582293973696328,-0.19873,-0.224121,0.92627
1582293973717286,-0.194336,-0.223145,0.925781
1582293973733179,-0.202637,-0.222168,0.921875
1582293973756120,-0.198242,-0.222168,0.919922
1582293973777515,-0.192871,-0.225586,0.922852
1582293973794025,-0.197266,-0.226563,0.920898
1582293973816170,-0.198242,-0.21875,0.922363
1582293973837420,-0.198242,-0.221191,0.91748
1582293973853857,-0.201172,-0.224121,0.921387
1582293973875799,-0.199219,-0.222168,0.925293
1582293973898739,-0.19873,-0.22168,0.923828
1582293973913762,-0.196289,-0.223633,0.919922
1582293973935654,-0.197754,-0.222168,0.919434
1582293973958627,-0.194336,-0.222168,0.921387
1582293973973537,-0.196289,-0.224121,0.922852
1582293973995979,-0.20166,-0.218262,0.92041
1582293974018419,-0.20166,-0.217773,0.920898
1582293974032389,-0.205078,-0.224609,0.92041
1582293974056318,-0.198242,-0.222656,0.918457
1582293974078262,-0.197266,-0.222656,0.926758
1582293974093217,-0.196289,-0.219727,0.919922
1582293974116282,-0.195801,-0.22168,0.922363
1582293974138115,-0.199219,-0.225098,0.921387
1582293974153057,-0.197754,-0.228516,0.923828
1582293974175996,-0.201172,-0.226563,0.920898
1582293974198936,-0.195313,-0.225586,0.921387
1582293974212965,-0.199219,-0.226563,0.923828
1582293974235841,-0.196289,-0.224609,0.919434
1582293974258773,-0.19043,-0.222168,0.921875
1582293974272741,-0.197266,-0.226563,0.921387
1582293974296150,-0.200684,-0.22168,0.921387
1582293974318615,-0.199219,-0.217285,0.921875
1582293974332983,-0.199707,-0.220703,0.916016
1582293974355947,-0.196777,-0.219238,0.921875
1582293974386435,-0.199707,-0.227539,0.916992
1582293974399584,-0.20166,-0.217285,0.925781
1582293974416353,-0.201172,-0.221191,0.923828
1582293974438521,-0.198242,-0.220703,0.92334
1582293974459400,-0.195313,-0.225098,0.92041
1582293974476238,-0.195801,-0.226563,0.930176
1582293974498193,-0.19873,-0.225586,0.924316
1582293974520077,-0.198242,-0.224609,0.922363
1582293974536045,-0.19043,-0.227051,0.924316
1582293974558237,-0.193848,-0.226563,0.924316
1582293974579916,-0.196777,-0.22998,0.925293
1582293974595877,-0.199219,-0.226563,0.921875
1582293974618812,-0.191895,-0.225586,0.917969
1582293974639926,-0.191895,-0.219727,0.92334
1582293974655717,-0.192383,-0.22168,0.919922
1582293974679022,-0.192383,-0.21875,0.918945
1582293974700607,-0.199707,-0.217773,0.922363
1582293974715553,-0.195801,-0.222656,0.918457
1582293974738555,-0.190918,-0.226563,0.927734
1582293974759437,-0.188477,-0.226563,0.92334
1582293974776401,-0.194824,-0.219727,0.914063
1582293974798521,-0.196777,-0.216309,0.92334
1582293974821269,-0.19873,-0.218262,0.927734
1582293974836231,-0.193848,-0.220703,0.921875
1582293974858171,-0.189453,-0.218262,0.925293
1582293974881168,-0.19043,-0.21582,0.924805
1582293974902249,-0.193848,-0.218262,0.930664
1582293974918133,-0.188965,-0.216309,0.929199
1582293974941008,-0.192871,-0.213379,0.916992
1582293974954989,-0.192383,-0.215332,0.929199
1582293974978851,-0.190918,-0.215332,0.918457
1582293975000794,-0.192871,-0.213379,0.921875
1582293975015762,-0.194824,-0.21875,0.92334
1582293975038687,-0.196289,-0.220215,0.92627
1582293975060629,-0.189453,-0.21582,0.92334
1582293975075631,-0.187012,-0.211426,0.931641
1582293975098528,-0.189941,-0.216797,0.927246
1582293975120554,-0.193359,-0.21582,0.920898
1582293975135427,-0.195801,-0.219727,0.923828
1582293975158569,-0.197266,-0.22168,0.912109
1582293975181403,-0.197266,-0.217285,0.92041
1582293975195314,-0.195801,-0.21582,0.928711
1582293975218209,-0.193359,-0.218262,0.924316
1582293975241293,-0.195801,-0.218262,0.928223
1582293975255124,-0.191895,-0.21875,0.927734
1582293975278220,-0.188477,-0.221191,0.919922
1582293975301233,-0.189941,-0.22168,0.928711
1582293975322114,-0.187988,-0.21875,0.924805
1582293975338884,-0.187988,-0.217285,0.919434
1582293975360830,-0.195313,-0.215332,0.925293
1582293975383767,-0.191895,-0.22168,0.924316
1582293975398724,-0.186035,-0.22168,0.924805
1582293975420817,-0.183105,-0.219727,0.924805
1582293975442189,-0.181152,-0.214844,0.931152
1582293975458636,-0.179688,-0.218262,0.925781
1582293975487563,-0.182617,-0.21582,0.927734
1582293975502589,-0.184082,-0.217285,0.929688
1582293975518409,-0.182617,-0.219238,0.929688
1582293975541341,-0.187012,-0.223633,0.924805
1582293975562474,-0.185059,-0.219727,0.927246
1582293975578246,-0.189941,-0.211426,0.92627
1582293975601182,-0.194336,-0.21582,0.922363
1582293975622128,-0.194336,-0.210938,0.92627
1582293975638172,-0.191406,-0.211426,0.928223
1582293975661027,-0.185547,-0.211426,0.921875
1582293975689946,-0.181641,-0.20459,0.932617
1582293975698921,-0.188477,-0.208496,0.925781
1582293975721193,-0.193848,-0.208984,0.925781
1582293975741946,-0.195313,-0.211426,0.922852
1582293975758761,-0.191406,-0.213867,0.914063
1582293975780702,-0.192871,-0.217285,0.92627
1582293975803641,-0.192383,-0.217285,0.922363
1582293975818601,-0.192383,-0.216797,0.923828
1582293975840905,-0.191895,-0.211426,0.921387
1582293975863766,-0.188965,-0.213379,0.918945
1582293975878495,-0.192871,-0.21875,0.931641
1582293975901379,-0.191406,-0.223145,0.922852
1582293975923373,-0.193848,-0.214844,0.922852
1582293975937484,-0.192871,-0.211914,0.918457
1582293975961298,-0.189941,-0.214844,0.926758
1582293975983306,-0.194824,-0.220703,0.927734
1582293975998132,-0.197754,-0.222168,0.918457
1582293976021060,-0.19873,-0.220703,0.919434
1582293976049982,-0.203125,-0.21582,0.929199
1582293976058019,-0.20166,-0.215332,0.925293
1582293976081160,-0.200195,-0.217773,0.92334
1582293976103837,-0.192871,-0.215332,0.918945
1582293976117854,-0.197754,-0.208496,0.919434
1582293976140740,-0.193359,-0.212891,0.922363
1582293976169839,-0.186523,-0.210938,0.923828
1582293976177641,-0.190918,-0.20752,0.922852
1582293976200638,-0.192383,-0.205078,0.923828
1582293976223563,-0.190918,-0.200684,0.923828
1582293976237531,-0.193848,-0.202148,0.924805
1582293976260612,-0.19043,-0.20459,0.925293
1582293976283543,-0.19043,-0.20752,0.925293
1582293976304492,-0.188477,-0.199707,0.925293
1582293976328637,-0.188965,-0.205078,0.925781
1582293976343201,-0.188477,-0.208008,0.927734
1582293976366291,-0.184082,-0.209473,0.937012
1582293976381341,-0.181641,-0.21582,0.931641
1582293976403191,-0.182129,-0.213379,0.924316
1582293976424979,-0.182617,-0.214844,0.933105
1582293976440942,-0.186523,-0.214844,0.927246
1582293976463947,-0.187012,-0.209473,0.927734
1582293976485034,-0.193848,-0.210938,0.92334
1582293976501061,-0.193359,-0.211914,0.916016
1582293976523970,-0.192383,-0.212402,0.921875
1582293976544816,-0.20459,-0.213867,0.92334
1582293976560672,-0.206543,-0.217285,0.929688
1582293976583700,-0.197266,-0.21582,0.927246
1582293976605709,-0.191895,-0.211426,0.925781
1582293976620682,-0.182617,-0.203613,0.919922
1582293976643925,-0.181152,-0.192383,0.924805
1582293976664499,-0.185547,-0.20752,0.925293
1582293976681304,-0.191406,-0.228516,0.928223
1582293976703444,-0.19043,-0.21582,0.930176
1582293976733154,-0.191406,-0.201172,0.925293
1582293976741369,-0.187988,-0.196289,0.929199
1582293976763121,-0.188477,-0.203613,0.931152
1582293976786082,-0.191895,-0.197754,0.930176
1582293976801037,-0.195313,-0.196777,0.935547
1582293976823911,-0.192871,-0.197266,0.937012
1582293976845857,-0.187012,-0.186523,0.928711
1582293976861151,-0.1875,-0.182617,0.920898
1582293976865804,-0.193359,-0.183594,0.925781
1582293976888966,-0.19873,-0.19043,0.930664
1582293976912985,-0.197266,-0.1875,0.924316
1582293976926786,-0.196777,-0.188477,0.920898
1582293976948591,-0.192383,-0.191406,0.928223
1582293976971646,-0.189453,-0.1875,0.933594
1582293976987573,-0.188477,-0.180664,0.933105
1582293977008551,-0.18457,-0.171875,0.930664
1582293977031505,-0.18457,-0.16748,0.930176
1582293977046718,-0.179688,-0.166992,0.936035
1582293977069319,-0.181152,-0.168945,0.931152
1582293977091357,-0.19043,-0.179688,0.936035
1582293977106670,-0.189941,-0.182617,0.938477
1582293977129318,-0.187012,-0.187988,0.931152
1582293977153030,-0.185547,-0.200195,0.939941
1582293977166005,-0.182617,-0.195801,0.930176
1582293977196130,-0.186523,-0.193359,0.934082
1582293977211931,-0.191895,-0.191895,0.930664
1582293977226910,-0.200684,-0.199219,0.924805
1582293977248783,-0.199219,-0.202148,0.929688
1582293977271740,-0.205566,-0.202148,0.930176
1582293977286733,-0.202637,-0.19043,0.92627
1582293977316649,-0.199219,-0.178223,0.929688
1582293977331619,-0.193848,-0.180176,0.933594
1582293977347579,-0.187988,-0.171387,0.930176
1582293977368657,-0.192383,-0.170898,0.933105
1582293977391605,-0.197754,-0.175781,0.937012
1582293977407568,-0.195313,-0.180176,0.934082
1582293977429292,-0.193359,-0.181152,0.932617
1582293977451702,-0.189941,-0.186035,0.932617
1582293977468187,-0.192383,-0.193359,0.921387
1582293977489182,-0.195313,-0.186035,0.932129
1582293977511278,-0.193359,-0.181641,0.929199
1582293977528110,-0.19873,-0.181152,0.928711
1582293977549125,-0.199707,-0.180176,0.922363
1582293977571118,-0.20459,-0.180176,0.932129
1582293977587893,-0.193848,-0.174316,0.933594
1582293977609012,-0.189453,-0.175293,0.932129
1582293977631762,-0.190918,-0.185547,0.928223
1582293977647978,-0.193359,-0.1875,0.937012
1582293977668812,-0.197754,-0.191406,0.931641
1582293977691782,-0.195313,-0.196289,0.926758
1582293977709725,-0.191406,-0.196289,0.924805
1582293977729499,-0.185547,-0.199707,0.931152
1582293977751843,-0.19043,-0.194824,0.932129
1582293977769380,-0.194824,-0.188965,0.927734
1582293977789355,-0.19873,-0.179199,0.924805
1582293977811540,-0.192383,-0.167969,0.937012
1582293977829222,-0.187988,-0.166016,0.934082
1582293977849173,-0.1875,-0.160645,0.933594
1582293977871312,-0.191895,-0.163086,0.929199
1582293977889068,-0.185547,-0.163574,0.94043
1582293977909303,-0.187988,-0.164551,0.932617
1582293977927118,-0.184082,-0.166016,0.936523
1582293977949026,-0.182617,-0.168457,0.93457
1582293977969091,-0.189453,-0.171387,0.9375
1582293977986799,-0.196777,-0.176758,0.937988
1582293978008791,-0.195801,-0.180664,0.93457
1582293978036790,-0.191406,-0.179688,0.93457
1582293978046757,-0.188477,-0.182129,0.936035
1582293978069579,-0.185059,-0.181641,0.935059
1582293978088529,-0.188965,-0.18457,0.932129
1582293978106482,-0.186035,-0.174805,0.93457
1582293978129653,-0.186523,-0.174316,0.930664
1582293978148377,-0.1875,-0.171875,0.939453
1582293978166322,-0.189941,-0.170898,0.934082
1582293978194246,-0.192871,-0.172852,0.926758
1582293978209340,-0.188965,-0.166016,0.93457
1582293978227164,-0.191895,-0.166016,0.932617
1582293978249291,-0.187988,-0.16748,0.933105
1582293978270044,-0.184082,-0.17041,0.933105
1582293978287000,-0.192383,-0.168945,0.930664
1582293978309097,-0.196777,-0.166992,0.930176
1582293978330042,-0.19043,-0.17041,0.939453
1582293978346891,-0.185059,-0.175781,0.935059
1582293978369667,-0.18457,-0.175781,0.933594
1582293978390719,-0.188965,-0.173828,0.938965
1582293978406678,-0.189941,-0.177246,0.9375
1582293978429661,-0.190918,-0.173828,0.938477
1582293978450561,-0.185059,-0.177246,0.931641
1582293978466517,-0.185547,-0.172852,0.927734
1582293978489454,-0.192383,-0.174316,0.937012
1582293978509458,-0.193359,-0.177734,0.932617
1582293978526356,-0.193848,-0.176758,0.928711
1582293978548699,-0.193848,-0.172852,0.931641
1582293978569752,-0.194824,-0.172852,0.928711
1582293978586195,-0.189453,-0.176758,0.932129
1582293978608215,-0.194824,-0.171875,0.929688
1582293978631089,-0.188965,-0.165039,0.931641
1582293978646088,-0.191895,-0.17041,0.936035
1582293978668106,-0.188965,-0.171875,0.938965
1582293978691269,-0.19043,-0.170898,0.935547
1582293978705876,-0.188477,-0.17041,0.932617
1582293978728814,-0.192383,-0.166016,0.927734
1582293978750758,-0.18457,-0.165527,0.93457
1582293978765716,-0.190918,-0.171875,0.936035
1582293978788656,-0.191406,-0.174805,0.933105
1582293978810620,-0.194336,-0.172363,0.935059
1582293978825556,-0.195313,-0.165527,0.930176
1582293978855507,-0.193359,-0.174316,0.932129
1582293978870636,-0.189453,-0.172852,0.933594
1582293978885434,-0.188965,-0.169922,0.931152
1582293978908338,-0.190918,-0.173828,0.938965
1582293978931273,-0.191406,-0.17041,0.933594
1582293978945769,-0.194336,-0.167969,0.933594
1582293978968175,-0.195313,-0.172363,0.926758
1582293978991161,-0.19043,-0.16748,0.936035
1582293979005131,-0.191406,-0.163574,0.929688
1582293979028196,-0.190918,-0.167969,0.932129
1582293979050958,-0.193359,-0.167969,0.938477
1582293979064915,-0.193848,-0.166992,0.936035
1582293979088858,-0.187012,-0.166016,0.928223
1582293979110801,-0.192871,-0.166992,0.929688
1582293979131794,-0.187988,-0.164551,0.93457
1582293979148693,-0.192871,-0.163574,0.932129
1582293979170680,-0.19043,-0.163574,0.9375
1582293979192633,-0.193848,-0.164063,0.935059
1582293979208531,-0.196289,-0.172363,0.930664
1582293979231482,-0.191895,-0.168457,0.93457
1582293979252469,-0.196289,-0.175781,0.933594
1582293979268382,-0.195313,-0.174316,0.933594
1582293979291314,-0.198242,-0.17627,0.930664
1582293979312448,-0.193848,-0.175293,0.933594
1582293979328212,-0.189941,-0.17627,0.939941
1582293979351149,-0.18457,-0.171875,0.932617
1582293979373251,-0.187988,-0.169922,0.927734
1582293979388098,-0.189941,-0.16748,0.932617
1582293979411141,-0.190918,-0.168945,0.933594
1582293979431942,-0.195313,-0.172852,0.936523
1582293979447898,-0.191895,-0.177246,0.926758
1582293979470834,-0.194336,-0.171875,0.927734
1582293979491975,-0.193848,-0.169922,0.931641
1582293979508778,-0.194824,-0.17334,0.934082
1582293979531674,-0.198242,-0.181152,0.932129
1582293979553607,-0.193848,-0.180176,0.930176
1582293979568626,-0.196289,-0.172363,0.930664
1582293979590973,-0.195313,-0.17041,0.92627
1582293979613757,-0.195313,-0.178223,0.934082
1582293979628454,-0.196289,-0.177734,0.932129
1582293979657328,-0.195801,-0.171387,0.930664
1582293979673588,-0.192871,-0.17627,0.929688
1582293979688771,-0.192871,-0.174805,0.930176
1582293979711258,-0.194336,-0.174316,0.930176
1582293979733126,-0.188477,-0.176758,0.936035
1582293979748293,-0.193359,-0.172852,0.927734
1582293979771391,-0.189453,-0.172363,0.93457
1582293979793030,-0.194824,-0.174805,0.933105
1582293979807926,-0.192383,-0.176758,0.929199
1582293979830878,-0.19043,-0.170898,0.936523
1582293979853806,-0.192383,-0.175781,0.931152
1582293979867915,-0.194824,-0.179199,0.932129
1582293979890759,-0.191895,-0.173828,0.932617
1582293979913689,-0.19043,-0.178711,0.928223
1582293979927612,-0.197266,-0.174805,0.935059
1582293979950677,-0.194336,-0.17334,0.928711
1582293979973530,-0.191895,-0.168945,0.930176
1582293979987447,-0.191895,-0.170898,0.932617
1582293980010574,-0.191895,-0.17041,0.929199
1582293980033328,-0.194336,-0.166016,0.927734
1582293980054437,-0.194824,-0.169922,0.930664
1582293980071222,-0.193848,-0.165039,0.931641
1582293980093399,-0.192383,-0.173828,0.932129
1582293980114117,-0.19043,-0.17334,0.931641
1582293980131073,-0.191895,-0.169922,0.93457
1582293980153263,-0.19043,-0.169922,0.936035
1582293980182074,-0.194336,-0.17041,0.935059
1582293980190908,-0.192383,-0.170898,0.935059
1582293980213852,-0.189941,-0.168457,0.93457
1582293980241991,-0.188965,-0.172363,0.928711
1582293980250742,-0.191406,-0.177246,0.932129
1582293980273897,-0.191895,-0.173828,0.936035
1582293980294792,-0.193848,-0.173828,0.927246
1582293980310643,-0.196289,-0.170898,0.936035
1582293980333756,-0.192383,-0.17627,0.9375
1582293980354513,-0.191406,-0.172363,0.937012
1582293980370421,-0.192871,-0.172363,0.928223
1582293980393406,-0.193359,-0.169922,0.936035
1582293980414813,-0.191895,-0.173828,0.935547
1582293980431273,-0.193359,-0.171875,0.934082
1582293980453205,-0.194336,-0.172363,0.928711
1582293980474713,-0.192871,-0.171875,0.932129
1582293980491100,-0.194336,-0.172363,0.934082
1582293980513480,-0.196777,-0.17041,0.931152
1582293980536309,-0.193848,-0.174805,0.933105
1582293980551004,-0.188965,-0.17627,0.931641
1582293980573877,-0.191895,-0.175293,0.938965
1582293980595824,-0.192871,-0.175781,0.930664
1582293980610779,-0.194336,-0.172363,0.93457
1582293980633717,-0.192383,-0.174316,0.927734
1582293980655657,-0.195313,-0.172852,0.928223
1582293980670619,-0.189453,-0.17334,0.936523
1582293980693564,-0.193848,-0.173828,0.930664
1582293980715523,-0.191895,-0.174805,0.935059
1582293980730469,-0.194824,-0.17627,0.931152
1582293980759605,-0.189941,-0.17627,0.930176
1582293980776337,-0.188477,-0.175781,0.933105
1582293980790350,-0.188965,-0.17627,0.931641
1582293980813297,-0.192871,-0.169434,0.927734
1582293980836177,-0.196777,-0.171387,0.93457
1582293980850143,-0.188965,-0.173828,0.931641
1582293980873077,-0.190918,-0.17334,0.931641
1582293980896017,-0.188477,-0.173828,0.930664
1582293980910170,-0.193848,-0.17627,0.9375
1582293980932921,-0.192383,-0.169434,0.926758
1582293980955859,-0.191895,-0.169922,0.931641
1582293980969823,-0.190918,-0.170898,0.930664
1582293980993765,-0.189453,-0.168945,0.933105
1582293981021861,-0.194336,-0.169922,0.934082
1582293981044818,-0.193359,-0.171387,0.932129
1582293981054851,-0.19043,-0.17627,0.938477
1582293981075536,-0.191406,-0.185059,0.939941
1582293981096628,-0.192383,-0.186035,0.935547
1582293981113431,-0.186523,-0.181641,0.928711
1582293981135503,-0.188477,-0.181641,0.926758
1582293981157361,-0.191895,-0.177734,0.931641
1582293981173563,-0.192383,-0.17334,0.92627
1582293981196212,-0.195801,-0.166992,0.935547
1582293981217302,-0.193359,-0.163086,0.93457
1582293981233321,-0.19043,-0.161621,0.935059
1582293981256110,-0.191406,-0.168945,0.935547
1582293981277227,-0.186523,-0.166992,0.937988
1582293981293406,-0.189941,-0.164551,0.927734
1582293981316167,-0.19043,-0.166016,0.932129
1582293981337194,-0.192383,-0.168457,0.93457
1582293981359824,-0.192871,-0.169922,0.928223
1582293981375737,-0.191406,-0.170898,0.937988
1582293981396815,-0.189453,-0.169922,0.932617
1582293981413746,-0.187988,-0.168457,0.932617
1582293981436228,-0.188477,-0.164063,0.938965
1582293981458566,-0.192871,-0.159668,0.935059
1582293981473501,-0.187988,-0.15918,0.933594
1582293981496408,-0.1875,-0.157715,0.935059
1582293981518351,-0.186523,-0.165527,0.934082
1582293981533315,-0.185547,-0.169434,0.933105
1582293981562443,-0.19043,-0.165527,0.931641
1582293981578584,-0.191895,-0.167969,0.934082
1582293981593150,-0.191406,-0.165527,0.930176
1582293981616094,-0.193359,-0.169434,0.932617
1582293981638396,-0.187012,-0.166016,0.931641
1582293981652996,-0.19043,-0.161621,0.931641
1582293981676109,-0.194824,-0.164551,0.93457
1582293981698103,-0.191406,-0.163086,0.934082
1582293981712882,-0.193848,-0.163574,0.94043
1582293981736007,-0.191406,-0.166992,0.937012
1582293981764703,-0.191406,-0.166504,0.932129
1582293981772675,-0.189453,-0.162109,0.933105
1582293981803589,-0.194336,-0.166504,0.9375
1582293981818548,-0.197266,-0.170898,0.936523
1582293981832514,-0.188477,-0.171387,0.932617
1582293981855607,-0.186035,-0.162109,0.930664
1582293981878396,-0.194824,-0.161133,0.931641
1582293981883374,-0.191406,-0.160645,0.932617
1582293981906706,-0.192383,-0.169434,0.933105
1582293981921803,-0.194336,-0.169922,0.939941
1582293981944275,-0.194824,-0.17041,0.93457
1582293981966533,-0.194336,-0.16748,0.932617
1582293981981162,-0.19043,-0.161621,0.935059
1582293982004053,-0.196289,-0.168945,0.93457
1582293982020015,-0.191895,-0.166992,0.939453
1582293982041952,-0.189453,-0.166016,0.933105
1582293982064109,-0.192871,-0.166016,0.931152
1582293982080000,-0.193359,-0.164063,0.933594
1582293982101789,-0.197266,-0.162598,0.933105
1582293982123943,-0.196289,-0.16748,0.931152
1582293982140692,-0.195801,-0.166016,0.932617
1582293982161838,-0.196289,-0.163574,0.932617
1582293982186802,-0.198242,-0.162109,0.938477
1582293982200524,-0.191895,-0.162109,0.9375
1582293982221673,-0.196289,-0.169922,0.932617
1582293982243614,-0.193848,-0.164551,0.928223
1582293982260415,-0.194336,-0.157227,0.937012
1582293982281525,-0.193359,-0.166504,0.927734
1582293982304311,-0.190918,-0.167969,0.936523
1582293982320479,-0.189941,-0.164551,0.937988
1582293982341291,-0.190918,-0.167969,0.930664
1582293982364098,-0.187988,-0.169922,0.93457
1582293982382046,-0.189941,-0.166504,0.938965
1582293982402984,-0.194824,-0.171387,0.935547
1582293982424140,-0.194824,-0.162598,0.937988
1582293982441885,-0.191406,-0.164551,0.935547
1582293982461860,-0.191406,-0.159668,0.935059
1582293982483815,-0.191895,-0.162598,0.931641
1582293982501721,-0.191406,-0.161133,0.934082
1582293982521670,-0.194336,-0.163574,0.932617
1582293982551731,-0.193848,-0.162598,0.933594
1582293982561564,-0.194336,-0.161133,0.931152
1582293982581503,-0.199707,-0.162598,0.934082
1582293982603612,-0.192871,-0.162109,0.928711
1582293982621540,-0.195801,-0.160645,0.933105
1582293982641691,-0.189941,-0.162109,0.931641
1582293982664284,-0.192871,-0.166504,0.933105
1582293982681299,-0.194824,-0.161621,0.933594
1582293982701588,-0.195801,-0.163086,0.934082
1582293982724333,-0.193848,-0.160645,0.932617
1582293982742121,-0.192871,-0.161621,0.928223
1582293982761183,-0.188477,-0.164063,0.933105
1582293982784166,-0.193359,-0.158691,0.933105
1582293982801916,-0.187012,-0.162109,0.935059
1582293982820866,-0.194336,-0.161133,0.938965
1582293982844211,-0.192383,-0.165527,0.938965
1582293982861756,-0.195313,-0.158691,0.937012
1582293982882700,-0.190918,-0.162598,0.929688
1582293982903942,-0.192383,-0.164063,0.941895
1582293982921596,-0.191895,-0.166016,0.935059
1582293982948526,-0.192383,-0.164551,0.935547
1582293982963542,-0.194336,-0.160156,0.935059
1582293982981618,-0.196777,-0.163574,0.93457
1582293983002531,-0.193359,-0.160156,0.931641
1582293983025324,-0.193359,-0.158691,0.937012
1582293983042117,-0.191895,-0.157715,0.931641
1582293983063219,-0.1875,-0.158691,0.94043
1582293983084226,-0.189453,-0.157227,0.937988
1582293983102167,-0.188477,-0.155762,0.938965
1582293983123120,-0.189453,-0.157715,0.936523
1582293983144218,-0.188965,-0.157227,0.930176
1582293983161958,-0.19043,-0.162598,0.93457
1582293983182950,-0.19043,-0.165527,0.9375
1582293983203900,-0.19043,-0.156738,0.938477
1582293983221793,-0.189941,-0.149902,0.929688
1582293983242790,-0.183105,-0.148438,0.933594
1582293983263902,-0.183594,-0.159668,0.940918
1582293983282067,-0.18457,-0.164063,0.943848
1582293983302770,-0.188477,-0.167969,0.938965
1582293983323723,-0.187988,-0.159668,0.939453
1582293983341472,-0.192383,-0.15332,0.932617
1582293983364573,-0.185547,-0.157227,0.926758
1582293983383847,-0.191406,-0.16748,0.934082
1582293983401313,-0.198242,-0.165039,0.938965
1582293983424262,-0.203613,-0.161621,0.934082
1582293983444401,-0.186523,-0.151367,0.942383
1582293983469132,-0.177734,-0.148438,0.9375
1582293983484338,-0.174805,-0.143066,0.929688
1582293983507156,-0.190918,-0.135254,0.932129
1582293983520998,-0.197754,-0.13623,0.936523
1582293983543129,-0.203613,-0.139648,0.9375
1582293983563889,-0.192383,-0.143555,0.935059
1582293983580841,-0.183594,-0.142578,0.936035
1582293983603819,-0.178711,-0.14209,0.941406
1582293983617782,-0.183594,-0.147949,0.941406
1582293983640672,-0.187988,-0.158203,0.941406
1582293983663623,-0.187012,-0.166504,0.94043
1582293983677574,-0.191895,-0.167969,0.938965
1582293983700572,-0.193848,-0.161133,0.931641
1582293983723512,-0.196289,-0.160156,0.933105
1582293983737706,-0.201172,-0.148926,0.935547
1582293983761349,-0.200684,-0.157715,0.936035
1582293983783295,-0.193848,-0.154297,0.934082
1582293983797559,-0.185547,-0.157227,0.937988
1582293983821189,-0.188965,-0.154297,0.939941
1582293983843325,-0.194824,-0.145996,0.933105
1582293983864083,-0.198242,-0.140137,0.93457
1582293983881038,-0.203125,-0.144531,0.933105
1582293983903299,-0.196289,-0.14502,0.934082
1582293983925119,-0.192383,-0.14209,0.93457
1582293983940927,-0.196777,-0.140625,0.937988
1582293983963822,-0.193359,-0.142578,0.939941
1582293983984855,-0.186035,-0.145508,0.942383
1582293984001012,-0.180664,-0.147949,0.939941
1582293984023647,-0.181641,-0.157227,0.936523
1582293984044787,-0.185547,-0.166016,0.935547
1582293984060966,-0.193359,-0.162109,0.939453
1582293984083540,-0.202637,-0.162598,0.940918
1582293984104432,-0.199219,-0.161621,0.932129
1582293984120413,-0.195801,-0.155762,0.933105
1582293984143565,-0.196289,-0.150879,0.938965
1582293984164272,-0.189941,-0.143066,0.936035
1582293984181225,-0.18457,-0.137207,0.937988
1582293984203168,-0.192383,-0.137695,0.937012
1582293984224115,-0.188965,-0.136719,0.940918
1582293984241066,-0.186035,-0.141602,0.937988
1582293984263067,-0.190918,-0.145996,0.932617
1582293984285035,-0.195313,-0.147461,0.939453
1582293984300955,-0.19043,-0.152344,0.940918
1582293984323844,-0.196777,-0.157227,0.935059
1582293984345786,-0.196777,-0.145996,0.933105
1582293984360756,-0.190918,-0.150391,0.937988
1582293984383686,-0.189453,-0.154785,0.939941
1582293984405627,-0.191895,-0.150879,0.938965
1582293984426787,-0.191406,-0.140625,0.935547
1582293984443593,-0.188477,-0.133301,0.930176
1582293984465464,-0.18457,-0.129395,0.936523
1582293984480435,-0.195313,-0.124023,0.93457
1582293984503611,-0.202148,-0.102539,0.931152
1582293984526304,-0.200684,-0.111328,0.933105
1582293984540270,-0.193848,-0.139648,0.932617
1582293984563216,-0.175781,-0.17334,0.926758
1582293984586148,-0.17627,-0.216309,0.931152
1582293984607293,-0.189453,-0.253906,0.925781
1582293984623185,-0.180176,-0.266113,0.939941
1582293984646125,-0.177246,-0.246094,0.933594
1582293984667122,-0.185059,-0.237793,0.92334
1582293984683883,-0.187988,-0.243164,0.925781
1582293984705827,-0.189453,-0.226074,0.925293
1582293984719986,-0.199219,-0.20166,0.916992
1582293984743720,-0.205566,-0.183105,0.929688
1582293984765666,-0.197754,-0.168457,0.918945
1582293984780624,-0.185547,-0.164551,0.922852
1582293984803560,-0.181641,-0.168945,0.936523
1582293984825551,-0.17627,-0.168945,0.937012
1582293984847453,-0.175781,-0.166992,0.937988
1582293984863879,-0.185059,-0.170898,0.941895
1582293984892525,-0.188965,-0.176758,0.933105
1582293984907510,-0.192871,-0.181641,0.931641
1582293984931220,-0.189941,-0.185059,0.929199
1582293984946189,-0.188477,-0.182617,0.921387
1582293984967258,-0.188965,-0.181152,0.924805
1582293984983145,-0.192871,-0.189941,0.936523
1582293985006085,-0.194336,-0.18457,0.930176
1582293985027156,-0.191895,-0.187012,0.930664
1582293985042973,-0.195801,-0.189453,0.934082
1582293985066119,-0.196289,-0.188965,0.928223
1582293985087196,-0.196289,-0.198242,0.932129
1582293985103759,-0.192383,-0.20166,0.927246
1582293985125703,-0.193359,-0.200195,0.930664
1582293985146701,-0.191406,-0.194336,0.932129
1582293985163598,-0.191406,-0.195801,0.931641
1582293985185650,-0.183594,-0.191895,0.932129
1582293985207070,-0.189453,-0.189453,0.932129
1582293985223438,-0.187988,-0.182617,0.925781
1582293985246390,-0.191895,-0.182617,0.933105
1582293985268321,-0.197266,-0.180176,0.925781
1582293985283332,-0.195801,-0.17627,0.930176
1582293985306271,-0.189941,-0.179199,0.925781
1582293985328529,-0.191406,-0.179199,0.925781
1582293985344188,-0.191895,-0.180176,0.935547
1582293985366055,-0.188965,-0.182617,0.925781
1582293985387999,-0.191406,-0.192871,0.937012
1582293985402958,-0.19043,-0.185059,0.9375
1582293985426386,-0.185059,-0.182617,0.936523
1582293985447977,-0.180664,-0.178711,0.929688
1582293985462806,-0.183105,-0.177246,0.933105
1582293985485740,-0.186035,-0.177246,0.935059
1582293985508890,-0.186035,-0.176758,0.937012
1582293985522937,-0.180664,-0.175293,0.932617
1582293985545946,-0.177734,-0.173828,0.931152
1582293985568787,-0.181152,-0.179199,0.936523
1582293985582541,-0.188477,-0.180664,0.9375
1582293985605759,-0.18457,-0.180664,0.937988
1582293985628408,-0.185059,-0.181152,0.935547
1582293985642832,-0.184082,-0.174316,0.930664
1582293985666253,-0.193359,-0.174316,0.92627
1582293985688492,-0.19043,-0.181641,0.934082
1582293985703157,-0.189453,-0.180176,0.938965
1582293985726156,-0.189453,-0.177246,0.933594
1582293985748032,-0.177734,-0.17041,0.936523
1582293985769174,-0.181152,-0.168945,0.940918
1582293985785988,-0.176758,-0.156738,0.933594
1582293985808871,-0.175293,-0.163574,0.929199
1582293985829854,-0.181641,-0.17334,0.927734
1582293985845781,-0.185547,-0.176758,0.935547
1582293985868710,-0.185059,-0.170898,0.93457
1582293985889708,-0.188965,-0.166504,0.930664
1582293985905672,-0.182129,-0.172852,0.92627
1582293985928550,-0.180176,-0.169434,0.939941
1582293985949978,-0.184082,-0.168457,0.938965
1582293985965456,-0.190918,-0.170898,0.928711
1582293985988393,-0.19043,-0.169922,0.936035
1582293986009474,-0.1875,-0.172363,0.940918
1582293986026289,-0.192383,-0.162598,0.929688
1582293986048233,-0.187012,-0.165527,0.93457
1582293986069362,-0.187012,-0.161133,0.932617
1582293986086134,-0.185059,-0.161621,0.9375
1582293986108127,-0.183105,-0.154297,0.937012
1582293986129244,-0.179199,-0.155762,0.938477
1582293986146035,-0.175781,-0.153809,0.941406
1582293986168125,-0.180664,-0.166992,0.931152
1582293986190853,-0.187012,-0.177246,0.936035
1582293986206223,-0.185547,-0.171387,0.943359
1582293986228785,-0.182617,-0.164063,0.931152
1582293986250700,-0.18457,-0.162598,0.936035
1582293986265650,-0.184082,-0.165527,0.942383
1582293986288608,-0.188477,-0.162598,0.938965
1582293986311586,-0.18457,-0.155762,0.938965
1582293986325547,-0.185059,-0.152344,0.939453
1582293986348428,-0.183594,-0.158203,0.934082
1582293986371366,-0.180176,-0.15918,0.9375
1582293986385369,-0.192871,-0.155273,0.934082
1582293986408273,-0.192383,-0.156738,0.937012
1582293986431206,-0.188477,-0.157715,0.935547
1582293986445404,-0.186035,-0.160645,0.935059
1582293986468469,-0.188965,-0.157227,0.934082
1582293986491291,-0.189453,-0.155273,0.938965
