timestamp,emg1,emg2,emg3,emg4,emg5,emg6,emg7,emg8
1582293935328603,-10,-3,-2,-2,1,-2,-2,-8
1582293935328603,1,0,-1,-2,-18,-8,-1,-1
1582293935331636,0,0,0,2,21,7,1,0
1582293935331636,0,1,0,1,-3,-2,-1,0
1582293935332594,2,0,-1,0,-2,-2,0,0
1582293935332594,-2,0,-1,-2,0,-1,-3,-3
1582293935334587,-2,-1,-3,-4,-10,-5,-2,-2
1582293935334587,-2,-3,0,0,2,0,1,1
1582293935340571,1,-5,-2,0,5,3,1,1
1582293935340571,-3,-1,0,0,-1,2,-1,-1
1582293935347740,2,0,-1,2,6,1,-1,-1
1582293935347740,-3,-3,-2,-3,-2,-1,-2,-2
1582293935355579,1,2,1,-1,-4,-3,0,0
1582293935355579,-1,0,-1,-2,0,-1,-2,-2
1582293935373493,-4,0,-1,-3,-3,-1,-1,-2
1582293935373493,0,-1,-2,-1,0,-2,-1,-3
1582293935376507,-1,-1,-1,-2,-3,-2,-1,1
1582293935376507,0,-2,-2,0,4,1,-1,0
1582293935401409,0,-1,-1,-2,-5,-1,-1,-1
1582293935401409,-1,0,0,-2,0,-2,-2,-3
1582293935402459,1,1,-2,-2,-2,0,-1,0
1582293935402459,1,0,1,1,5,1,0,1
1582293935439706,-1,-2,-2,-1,-2,-2,-1,-1
1582293935439706,-7,-3,1,-1,-1,-1,-4,-2
1582293935440303,0,0,-2,-2,-2,-3,-1,0
1582293935440303,0,0,-2,-2,0,-2,-1,-2
1582293935441302,1,0,0,0,-2,0,1,1
1582293935441302,0,-1,-1,-1,-2,0,1,-2
1582293935444342,-1,-2,-2,2,1,0,1,-1
1582293935444342,0,-1,-1,-2,-3,0,-2,-1
1582293935451273,2,-1,-2,1,-1,0,0,0
1582293935451273,0,-2,-2,-3,-1,0,0,0
1582293935459291,-2,-1,1,-1,-1,1,-1,-2
1582293935459291,1,1,0,-1,-1,0,-1,0
1582293935468231,1,2,-2,-2,-1,-1,-2,-1
1582293935468231,-1,-2,-1,-1,-1,0,-2,-1
1582293935482250,-1,0,-2,-1,0,0,-2,-3
1582293935482250,0,2,0,1,0,-1,1,-1
1582293935489238,-1,-1,-1,-3,-1,-1,-3,-2
1582293935489238,1,2,0,0,0,-3,0,-1
1582293935513159,0,-2,-1,-3,-2,-3,-2,-1
1582293935513159,0,0,-2,-2,-13,-5,-1,-1
1582293935514107,-3,0,0,3,16,10,2,0
1582293935514107,1,0,-1,2,2,-1,0,2
1582293935528136,4,-1,-1,-1,-4,-2,-3,2
1582293935528136,-10,-4,-2,-4,0,-1,-3,-6
1582293935529070,1,-2,0,-4,-9,-3,0,-1
1582293935529070,0,0,-1,-2,0,-1,-1,-1
1582293935551010,1,2,-1,0,7,2,0,-1
1582293935551010,0,-3,-2,-1,-2,0,-1,0
1582293935552011,-2,-1,0,0,0,-3,-2,-1
1582293935552011,0,1,1,0,-1,-2,-2,0
1582293935573013,-1,0,-2,-2,-4,-1,0,0
1582293935573013,0,-2,-1,1,1,-1,-2,0
1582293935580930,0,-1,0,1,-1,-1,-2,-2
1582293935580930,0,-2,-2,-1,-1,-1,1,-1
1582293935586966,-3,-3,0,-1,-2,0,-2,-1
1582293935586966,1,1,0,1,2,0,2,2
1582293935593934,-1,0,0,1,0,-2,-3,-1
1582293935593934,-1,-1,-2,-1,-5,-1,-2,-1
1582293935610919,-2,-2,-2,-3,-4,-3,-1,-2
1582293935610919,0,-1,-2,-2,-3,0,-1,-1
1582293935611847,0,0,0,0,8,-1,0,0
1582293935611847,-6,-5,-5,-3,-3,-2,-2,-2
1582293935632984,1,0,0,-1,2,2,0,-1
1582293935632984,1,-2,-1,0,-4,-3,-1,0
1582293935634788,-3,-1,-3,-3,-4,-2,1,-2
1582293935634788,0,0,0,-1,0,0,-1,1
1582293935647813,-1,-2,1,1,-5,-1,-1,-1
1582293935647813,-2,1,-1,-3,0,0,-3,-1
1582293935653778,0,0,-1,-2,-4,-1,-2,2
1582293935653778,-1,1,-3,0,1,-1,0,-2
1582293935670888,-2,-1,-1,-2,-2,0,-1,-1
1582293935670888,1,1,-1,1,3,0,0,-1
1582293935672246,-3,-2,-1,-2,-2,-1,-1,-3
1582293935672246,-1,0,0,-1,-3,0,0,1
1582293935692840,-1,-1,0,0,-1,-2,-1,-2
1582293935692840,-2,-2,1,-1,1,1,-2,-1
1582293935694624,-1,-4,-5,-2,-4,-2,-2,-3
1582293935694624,1,-1,-1,2,1,0,0,-1
1582293935707589,0,1,-2,-1,-12,-6,-1,0
1582293935707589,0,-1,1,2,16,9,0,0
1582293935721773,-1,-1,0,2,-2,0,-1,0
1582293935721773,0,-2,1,0,-2,-1,0,0
1582293935730601,0,0,-3,-1,5,-1,0,-1
1582293935730601,0,0,-2,-3,-9,-4,0,-1
1582293935731957,-7,-2,-1,-2,-4,-2,1,-7
1582293935731957,1,0,0,0,1,-1,-2,1
1582293935752986,-2,-3,-2,-1,-4,0,-1,-1
1582293935752986,2,-1,-2,-1,0,-3,-1,0
1582293935754468,2,-1,-1,-1,0,-1,-1,1
1582293935754468,-3,-2,0,-1,-3,-2,-1,-4
1582293935767510,0,0,1,0,2,1,-1,-1
1582293935767510,-1,-2,-2,1,-2,-2,-2,-1
1582293935774411,-2,-1,0,-1,0,-1,1,0
1582293935774411,0,0,-1,-3,-2,-1,0,-1
1582293935790883,-1,-1,-2,1,1,-1,0,1
1582293935790883,-1,0,2,0,-1,-1,0,0
1582293935792366,0,0,1,0,-5,-2,-1,0
1582293935792366,-1,-5,-1,-3,-2,-1,-1,1
1582293935813307,-2,0,0,-1,1,0,0,-2
1582293935813307,-1,1,-3,-1,-3,-2,-3,-1
1582293935814309,0,0,0,-1,-2,-2,-1,1
1582293935814309,-1,1,0,0,1,0,-1,-1
1582293935827313,-2,-2,-1,0,0,1,-3,-1
1582293935827313,-1,-2,-2,-3,-2,-2,-2,0
1582293935841232,1,-1,-1,-2,-17,-6,-1,-2
1582293935841232,1,1,0,3,22,8,2,-1
1582293935850401,1,-1,-1,-2,-3,-1,-1,-1
1582293935850401,-10,-3,-2,-4,-3,-2,-1,-5
1582293935852202,3,-1,-1,-1,1,-2,-2,2
1582293935852202,-3,0,-2,-3,-8,-4,-2,0
1582293935873158,0,-1,-2,0,-1,0,-1,1
1582293935873158,2,0,-1,0,1,1,1,0
1582293935874158,-2,-1,0,-1,2,2,-1,-1
1582293935874158,-3,0,-2,0,-5,-4,-2,-2
1582293935895592,-1,-1,-1,0,3,1,-1,2
1582293935895592,0,-1,-2,0,-3,-1,0,0
1582293935897084,-1,1,0,1,2,4,-1,-1
1582293935897084,1,0,-2,0,-4,-1,-1,1
1582293935918230,-2,-1,-1,-1,-1,-2,0,-3
1582293935918230,-2,0,-3,-2,-2,-2,-1,1
1582293935919172,-1,0,-1,-1,2,0,0,0
1582293935919172,1,-1,0,-3,-3,-1,-2,-1
1582293935940848,-3,-1,-2,-2,1,0,-2,-2
1582293935940848,1,0,2,3,2,-1,-2,0
1582293935942010,1,0,-2,0,2,0,-1,1
1582293935942010,-3,-1,-2,0,-9,-1,0,-2
1582293935955926,0,0,0,2,10,2,1,-2
1582293935955926,4,1,0,2,-1,2,0,0
1582293935957383,-8,-4,-2,-2,-1,-3,-2,-3
1582293935957383,1,-1,-2,-2,-7,-3,-3,1
1582293935969888,-1,1,1,0,-3,-3,-1,0
1582293935969888,0,0,0,-3,1,-2,0,-1
1582293935971883,-1,-1,0,0,-4,-3,-1,0
1582293935971883,-3,-2,-2,-2,0,-1,-2,-3
1582293935992887,0,1,0,0,0,-2,0,-2
1582293935992887,0,-1,-2,-1,-1,0,-1,0
1582293935994821,-1,0,-1,-1,0,1,0,0
1582293935994821,-1,-2,1,-2,2,-2,-2,-1
1582293936006844,0,-1,-2,-2,-2,-1,-1,-1
1582293936006844,-2,-2,-2,1,-4,-4,-2,-1
1582293936015767,-1,-1,-2,1,1,-2,-1,-1
1582293936015767,-2,1,2,0,3,0,-2,-3
1582293936030921,0,-1,0,-1,-6,-2,-1,-1
1582293936030921,-1,-1,-2,-1,0,0,-1,-1
1582293936031724,2,0,-1,-1,1,0,0,0
1582293936031724,1,1,-1,-1,1,0,1,0
1582293936052817,-1,-2,-2,-3,-19,-7,0,-1
1582293936052817,-2,0,0,4,18,5,-1,-1
1582293936054719,0,-2,0,0,0,-1,-3,-1
1582293936054719,-2,-1,-1,0,-1,-1,-1,1
1582293936066630,-1,-1,1,-1,-3,-3,-2,-1
1582293936066630,0,1,0,-3,-6,-3,0,0
1582293936075606,2,1,0,-2,0,0,1,1
1582293936075606,-2,-1,-1,-2,-2,-1,1,-1
1582293936090575,-5,-4,-3,-3,4,2,-2,-6
1582293936090575,1,0,1,-1,-2,-3,0,1
1582293936091794,-2,-1,0,-1,0,0,-1,1
1582293936091794,1,-2,0,-1,-4,1,-3,-2
1582293936112650,-1,-1,-1,1,2,1,-1,0
1582293936112650,-2,-1,-1,-2,-2,1,-1,-2
1582293936114505,-1,0,-2,-1,-3,-1,-3,-2
1582293936114505,-1,0,-1,0,0,0,0,-1
1582293936126527,0,-1,1,0,2,-1,0,-1
1582293936126527,-2,-3,-3,-1,-3,-2,-1,-3
1582293936135483,0,-1,-3,-1,-2,-2,0,0
1582293936135483,0,0,-1,0,-1,-1,-2,-1
1582293936150413,0,0,-1,-1,1,3,-1,0
1582293936150413,-1,-1,-2,-3,-5,-1,0,0
1582293936152406,-3,-2,-3,-2,0,-2,-2,-4
1582293936152406,-2,0,1,-1,-1,-2,-1,-2
1582293936172575,0,0,0,-2,-1,-5,-4,-1
1582293936172575,-2,-1,-2,-1,-3,0,-3,-1
1582293936174348,-2,0,-1,0,1,0,0,-2
1582293936174348,-1,0,0,-1,-2,0,-1,1
1582293936195483,-1,-1,-2,-1,-1,-1,-1,0
1582293936195483,1,-3,-1,-2,-2,-1,-1,-2
1582293936197283,0,-2,2,1,1,0,-2,1
1582293936197283,1,0,-2,-3,-3,-3,-1,0
1582293936210489,-1,-1,-2,-1,-1,-1,0,-1
1582293936210489,-1,-2,1,-1,3,3,1,1
1582293936212374,-1,-2,-1,-1,-3,-9,-4,-1
1582293936212374,3,-1,-1,2,1,1,2,1
1582293936233188,-5,-1,0,3,8,12,4,1
1582293936233188,0,0,0,-2,-7,-5,-2,0
1582293936234180,0,0,-1,0,-2,-1,0,-2
1582293936234180,-2,-1,-1,-3,-5,-11,-3,-3
1582293936246296,1,-1,0,0,5,3,3,1
1582293936246296,0,-1,-1,0,-2,-4,1,0
1582293936255173,-2,-1,0,-1,-2,-6,-2,-1
1582293936255173,0,0,-1,-2,-4,3,0,0
1582293936270288,0,0,-1,-3,-3,-6,-2,-2
1582293936270288,-3,-2,0,0,1,0,0,-2
1582293936272082,0,-2,-3,0,-2,-1,-1,-1
1582293936272082,-1,-1,-2,-1,0,-2,-2,-1
1582293936293319,-1,-2,0,-1,-5,-3,-3,-1
1582293936293319,-1,-1,-3,0,0,2,-1,-2
1582293936294029,1,1,0,0,3,8,3,1
1582293936294029,-1,0,-1,-1,-1,3,0,-2
1582293936306996,-2,1,-1,0,-3,-4,-1,1
1582293936306996,-1,-1,-1,-2,-3,-2,-3,-1
1582293936315962,-1,0,1,-2,-1,1,1,0
1582293936315962,-1,-1,-1,-1,3,3,-1,-3
1582293936330078,0,-1,0,-2,-3,-5,-1,-2
1582293936330078,-1,-1,-3,-2,0,0,-1,-1
1582293936336907,-2,-2,-1,1,-2,-2,-1,-3
1582293936336907,-3,-2,-2,-1,-1,-2,-2,0
1582293936353274,0,-3,-1,0,-2,-3,-3,-1
1582293936353274,-1,-1,-2,0,1,3,0,-1
1582293936354876,1,0,-2,-2,2,0,1,1
1582293936354876,-2,-1,-2,-3,-17,-6,-2,-2
1582293936367151,1,0,-1,3,19,7,0,-1
1582293936367151,1,-1,2,0,-3,-2,-2,1
1582293936375801,-10,-4,-3,-2,-2,-1,-4,-7
1582293936375801,1,0,1,0,-2,-6,-1,-2
1582293936389776,-1,-1,-2,-3,-8,-3,-3,-2
1582293936389776,2,1,0,-2,-1,-2,-2,-1
1582293936396936,1,1,-1,-2,-2,-1,0,1
1582293936396936,-2,-2,-2,0,3,3,1,2
1582293936411903,0,1,-2,-1,-4,0,-1,-1
1582293936411903,-1,-2,-1,1,4,0,0,-2
1582293936420738,0,-1,-1,-2,-4,-1,-1,0
1582293936420738,-2,-2,-3,1,4,1,-2,-1
1582293936435789,2,0,-2,-4,-3,-3,-1,1
1582293936435789,-5,-3,-4,-3,-1,-5,-2,-5
1582293936436641,1,-1,-1,-3,-16,-5,-1,1
1582293936436641,-1,-1,0,4,25,8,1,0
1582293936457633,-1,-1,-1,-1,-5,-3,0,0
1582293936457633,-1,-1,-2,-1,-3,-1,-1,1
1582293936459583,1,-2,-1,-1,1,0,0,-3
1582293936459583,-1,-1,-1,-3,-5,-2,-2,0
1582293936471697,-2,-1,0,0,-3,-1,-1,-2
1582293936471697,-3,-1,-2,0,0,1,0,0
1582293936480580,1,-2,-2,0,1,0,-1,1
1582293936480580,-1,-2,-2,-1,-3,-1,-2,-3
1582293936495970,0,-1,-1,-2,2,-1,0,-2
1582293936495970,0,-1,1,-1,-4,-2,0,1
1582293936496480,3,3,0,0,2,0,0,2
1582293936496480,-1,0,-1,1,0,0,-1,0
1582293936518005,-4,0,1,-1,-5,-3,0,-5
1582293936518005,0,-1,-2,-1,-2,-2,-1,-1
1582293936519423,-1,-1,-1,0,0,-2,-2,-3
1582293936519423,4,1,0,-3,-1,0,0,1
1582293936531390,1,-2,-2,1,-3,-1,1,-1
1582293936531390,-2,-1,0,-1,0,0,-2,-2
1582293936540361,-2,-1,-1,-1,1,0,-1,-2
1582293936540361,-1,0,-1,-1,-5,-2,-1,-1
1582293936555462,-2,-2,-2,-1,0,2,-3,0
1582293936555462,-1,-1,-1,0,-1,-1,0,0
1582293936557317,-1,-1,-2,0,-1,0,0,-1
1582293936557317,1,-1,-1,-3,-1,-1,0,-1
1582293936578426,-2,-1,-1,-2,-4,-2,-1,2
1582293936578426,1,0,-1,-1,-1,1,1,0
1582293936579490,-3,-3,-3,0,-2,-1,0,-2
1582293936579490,-1,-1,1,-1,-2,0,-1,-2
1582293936591466,1,1,-3,-1,-1,-2,-2,2
1582293936591466,-2,-2,0,-1,-2,-2,-3,-1
1582293936600625,0,1,-1,0,0,0,-1,1
1582293936600625,-1,-1,-1,0,-1,-1,-1,-2
1582293936615407,3,-2,-1,-1,-1,-1,0,1
1582293936615407,0,-1,-2,1,-1,-3,-2,1
1582293936617155,-11,-4,-1,0,1,0,-2,-6
1582293936617155,3,1,-1,0,-4,-5,-2,4
1582293936638247,0,-2,-2,-3,-2,0,-1,-1
1582293936638247,2,0,1,1,-1,0,0,0
1582293936639309,0,-1,0,-1,0,0,-1,1
1582293936639309,-3,-1,-1,-3,-3,-1,-1,-2
1582293936651631,-2,0,1,0,1,0,-1,-1
1582293936651631,-2,-2,-2,-1,-1,-1,-2,-1
1582293936660224,1,0,-2,-1,-2,-1,-1,0
1582293936660224,-4,-4,-2,-2,0,1,-1,-4
1582293936675058,2,-2,-2,0,0,0,1,0
1582293936675058,-2,0,1,-1,-2,-2,-1,-2
1582293936681983,0,0,0,-1,0,-4,0,-2
1582293936681983,0,0,-2,0,-1,0,-2,-2
1582293936698236,-3,-3,-2,-2,-3,-4,-2,-3
1582293936698236,-2,-1,-2,-1,0,4,-2,-1
1582293936698958,1,-3,-1,-1,-1,-2,0,0
1582293936698958,1,0,-2,-1,0,1,3,2
1582293936711907,-1,2,0,2,-2,-3,0,0
1582293936711907,-3,-1,-3,-2,-4,-1,-1,-3
1582293936720880,3,0,0,0,-2,0,-1,3
1582293936720880,-12,-3,1,-1,0,-2,-4,-7
1582293936734841,4,-1,-1,-4,-1,-1,-2,3
1582293936734841,2,1,1,-1,-1,-2,1,0
1582293936737251,1,2,0,1,-2,2,0,0
1582293936737251,1,-1,-2,-4,-3,-1,1,1
1582293936757785,-3,0,1,0,0,-2,-2,-2
1582293936757785,-1,0,0,-2,3,5,3,-1
1582293936759782,-1,-2,-2,-2,-2,-5,-2,-1
1582293936759782,1,-1,-2,0,-2,-7,-2,-1
1582293936771890,-2,-2,-1,-1,1,7,-1,-1
1582293936771890,-2,-2,-2,-2,-2,-4,-2,-2
1582293936780718,-3,-2,-1,-2,-2,1,-3,-3
1582293936780718,0,-1,-1,0,1,-1,-1,0
1582293936795679,0,3,2,2,2,2,3,1
1582293936795679,-3,-1,-2,2,-1,2,0,0
1582293936796675,0,-1,-2,0,-2,-1,-5,-4
1582293936796675,1,-3,-1,1,-2,-3,-3,-1
1582293936816629,-1,-1,-2,-2,-1,-3,-1,-2
1582293936816629,0,0,0,0,2,0,0,0
1582293936817834,0,1,-1,-2,0,0,1,-2
1582293936817834,-1,-1,-2,-1,0,2,-1,-3
1582293936839702,1,0,-1,0,0,-1,-1,-1
1582293936839702,-4,-2,-2,0,2,1,-1,-2
1582293936840564,0,0,-2,-1,-5,-8,-1,0
1582293936840564,-1,-1,1,2,-1,3,2,0
1582293936853574,-4,-2,-3,-1,-2,-2,-3,-2
1582293936853574,4,0,-1,-2,-1,-3,-1,0
1582293936862506,-2,-1,1,0,3,5,4,-1
1582293936862506,2,1,0,-2,-3,-4,-2,2
1582293936877465,-1,-2,-1,-2,-2,-3,-5,-5
1582293936877465,0,0,-3,-2,-4,-2,-2,1
1582293936878327,-1,-2,0,-1,0,-3,-2,-1
1582293936878327,0,0,-2,1,-1,1,3,2
1582293936907427,-2,-2,-1,0,1,1,0,-3
1582293936907427,-1,-2,-1,0,1,1,0,0
1582293936908381,-1,-1,-1,-1,0,2,1,-1
1582293936908381,-1,0,-2,-1,-2,-1,-2,-3
1582293936914360,0,-2,-3,-2,0,-1,0,0
1582293936914360,0,0,2,-1,-2,-4,-4,-4
1582293936915356,-1,1,-2,-2,-1,-2,-3,-1
1582293936915356,-4,-3,-1,-3,0,1,-1,-2
1582293936937299,-1,-1,-3,0,-2,0,-1,-1
1582293936937299,-1,-2,-2,-3,-2,-6,0,1
1582293936938305,0,-1,0,-1,1,8,1,0
1582293936938305,-2,1,-1,-2,-1,-4,-1,-2
1582293936959243,-2,-2,-1,-2,-2,-1,-3,-3
1582293936959243,-2,-3,-1,0,1,5,2,-1
1582293936960369,3,0,-1,0,-1,-5,-3,-1
1582293936960369,-4,-3,-1,0,1,1,1,0
1582293936975199,-2,2,-2,-2,-3,-3,1,0
1582293936975199,-2,-1,-2,-1,-5,-6,-4,-3
1582293936975199,-2,-1,-1,2,2,3,-1,-1
1582293936975199,3,0,1,2,5,9,4,1
1582293936997483,-4,-3,-1,-2,-3,-8,-4,-3
1582293936997483,-3,-1,-1,-4,-3,1,-2,-4
1582293936998301,0,0,-1,-1,-2,-4,-3,-3
1582293936998301,-1,0,0,-3,-2,-2,-3,-2
1582293937019135,-1,-2,-1,-2,-2,1,0,0
1582293937019135,-1,0,0,1,-2,1,-2,-1
1582293937020078,-2,-2,-1,0,5,15,4,2
1582293937020078,0,0,-3,-2,-1,-3,-1,-2
1582293937035090,-1,0,2,0,1,-1,-2,-2
1582293937035090,-2,-2,-3,-2,-1,-6,-1,-2
1582293937042026,-2,-2,-2,-2,-3,-7,-3,-1
1582293937042026,-3,-3,-1,-1,-3,-3,-2,-2
1582293937056984,2,0,-2,0,-1,-1,0,2
1582293937056984,-2,-2,-1,1,2,0,-1,-2
1582293937057976,-1,-1,1,0,-1,-2,-1,1
1582293937057976,0,0,0,-1,0,0,0,-1
1582293937079923,-1,-2,-3,-1,0,-3,-2,-2
1582293937079923,-1,-1,0,0,0,-4,0,-1
1582293937079923,0,0,-1,2,-3,0,-1,-2
1582293937079923,3,1,0,-3,-4,-4,-3,0
1582293937094878,1,1,1,1,1,2,1,1
1582293937094878,5,-1,-2,-3,-3,-1,-2,3
1582293937094878,-4,-1,-2,-1,-1,-4,-2,-3
1582293937094878,-1,-1,-1,0,-2,-2,-2,-1
1582293937117109,2,-2,-1,-1,0,2,0,1
1582293937117109,-9,-2,0,-2,-2,-1,0,-3
1582293937117815,1,-1,-1,-2,-2,-3,0,1
1582293937117815,-3,0,-1,0,-2,0,-3,-2
1582293937140765,-2,-1,1,-1,-2,-1,-1,-3
1582293937140765,-4,-2,-1,0,1,0,-2,-4
1582293937140765,-1,-1,0,0,2,2,3,1
1582293937140765,-2,-1,-1,0,-1,1,1,-1
1582293937154939,1,-1,-1,-1,-2,-3,-1,1
1582293937154939,2,-1,-4,-1,-2,0,-3,-2
1582293937155729,-3,-3,0,-2,-4,-2,-2,-2
1582293937155729,2,-1,0,-2,-1,-2,-2,-1
1582293937177664,-1,-1,-2,0,0,1,-1,-4
1582293937177664,1,1,-1,1,0,1,1,0
1582293937177664,0,-2,0,-2,-4,-1,0,-1
1582293937177664,0,2,0,-1,0,-2,1,0
1582293937199607,-13,-7,-1,-1,2,3,1,-10
1582293937199607,-1,-1,0,-1,0,0,0,1
1582293937200593,0,-1,-3,0,1,-2,-2,2
1582293937200593,-2,-2,1,2,1,0,-2,-2
1582293937214703,0,1,-3,-1,-1,-1,-1,0
1582293937214703,-1,-2,-2,-1,-1,-2,-1,-1
1582293937215854,-3,0,-1,-2,-1,-1,0,-2
1582293937215854,5,-1,-2,-2,-3,1,1,0
1582293937237686,-4,-3,-1,0,0,-2,-1,-1
1582293937237686,2,-1,2,1,1,1,1,1
1582293937237686,4,1,-3,-3,-2,-3,-3,2
1582293937237686,-2,-2,-1,-1,0,-2,1,-1
1582293937259863,2,0,1,0,0,0,2,2
1582293937259863,-8,-4,-1,0,-1,0,-2,-7
1582293937260436,2,1,-1,-1,-4,-3,-2,3
1582293937260436,-5,0,2,0,3,4,1,-5
1582293937274471,-9,-3,0,2,2,3,-1,-7
1582293937274471,1,0,-1,-1,-1,-3,-2,-1
1582293937275606,-1,0,0,0,0,0,-1,-3
1582293937275606,-3,-3,-4,-1,-3,-1,-2,-1
1582293937297395,4,0,1,-1,0,0,0,3
1582293937297395,0,1,1,-3,0,0,1,2
1582293937298335,-2,0,0,-2,-1,-2,-2,-1
1582293937298335,0,-1,-2,-2,-1,-4,-2,0
1582293937319767,3,1,0,0,-2,0,1,1
1582293937319767,-1,-3,0,0,-1,0,0,0
1582293937320280,-1,-2,-1,1,-1,-3,-1,-2
1582293937320280,-3,-1,1,1,1,1,-1,-3
1582293937334538,0,0,0,0,-1,-3,-1,2
1582293937334538,3,-1,-2,-2,-2,-1,-1,0
1582293937335245,-7,-3,0,-2,2,3,-1,-4
1582293937335245,-1,-1,-1,-4,-3,0,-3,-3
1582293937357182,3,3,0,0,-2,-3,-1,2
1582293937357182,-1,-1,0,0,-1,1,1,1
1582293937358310,3,0,-1,-1,-1,0,-1,0
1582293937358310,1,0,-1,-1,-1,-2,0,2
1582293937379160,-1,-1,-2,-1,0,-1,-1,-1
1582293937379160,1,-1,-1,-1,-2,-1,-3,-1
1582293937380132,-3,-2,-2,-1,-1,-1,-1,-3
1582293937380132,-1,1,0,0,-1,-2,1,0
1582293937394308,0,0,0,-3,-2,-1,-2,-1
1582293937394308,-1,0,-2,-1,-2,-1,-3,-2
1582293937395074,1,0,0,-1,-1,-1,-2,1
1582293937395074,-3,-2,-2,-3,-1,-2,-1,0
1582293937417018,1,-1,-1,-2,-2,0,0,1
1582293937417018,-3,-1,0,0,1,1,3,-4
1582293937418040,0,-1,0,-2,-3,-1,0,-1
1582293937418040,1,0,-1,-1,-1,-2,-6,1
1582293937439960,1,-1,-2,-2,-2,-2,-2,-1
1582293937439960,-4,-2,-1,-3,-1,0,-1,-1
1582293937441175,-2,-1,-1,0,0,1,-1,-1
1582293937441175,-3,0,-1,1,0,-1,-1,-2
1582293937453922,1,0,0,-1,-1,-1,0,1
1582293937453922,2,-1,-1,-1,-2,-3,0,1
1582293937461902,1,0,0,0,-1,-1,0,0
1582293937461902,-1,-2,-2,-2,0,0,-3,-1
1582293937477060,-3,-3,-2,-2,-1,-3,-4,-6
1582293937477060,0,-3,-1,0,0,-2,0,0
1582293937477852,-3,-2,-1,0,-1,0,2,-5
1582293937477852,1,-1,-1,-1,-3,0,1,0
1582293937499801,-4,0,-2,0,1,2,-1,-4
1582293937499801,-6,-2,-1,-1,0,-1,-1,-3
1582293937506782,-2,-2,-1,0,-1,-3,-1,1
1582293937506782,-1,-2,-4,-1,-3,-2,-2,1
1582293937514082,0,-1,-1,0,-1,-2,0,1
1582293937514082,1,1,0,-2,-2,0,-2,0
1582293937521744,-3,-2,-1,0,-2,-2,-2,-3
1582293937521744,-2,-1,0,-1,-2,1,1,0
1582293937536749,2,-1,0,-2,0,-1,0,1
1582293937536749,0,-3,-1,-1,-3,-2,-3,-1
1582293937537697,2,0,0,-1,-2,1,0,1
1582293937537697,1,-3,-2,-2,-1,-2,-2,-1
1582293937559642,-1,-2,-2,-2,0,0,-1,-1
1582293937559642,0,0,0,0,0,1,5,0
1582293937560641,-4,-2,-2,0,1,2,-1,-5
1582293937560641,0,-2,0,0,-2,-2,-1,0
1582293937573788,-3,-1,-1,1,-2,-2,-1,0
1582293937573788,-4,-1,-2,-2,-2,-6,-6,-3
1582293937582631,2,0,-1,-2,-3,-2,-1,2
1582293937582631,1,0,0,1,-1,1,0,1
1582293937597751,-3,-3,-4,-1,-2,-3,0,0
1582293937597751,0,0,-2,1,1,1,0,0
1582293937597751,0,1,2,1,1,-1,-2,-2
1582293937597751,1,0,0,0,1,-1,-1,-1
1582293937619633,3,-1,2,0,-1,0,1,1
1582293937619633,-10,-3,-1,-2,-1,-2,-3,-5
1582293937620709,3,0,-2,-1,1,1,2,0
1582293937620709,-3,-2,0,-2,-1,-3,-2,-4
1582293937634500,0,-3,-3,-1,-2,-3,-2,1
1582293937634500,4,1,-1,-2,-3,-2,-2,1
1582293937642612,1,-1,-3,-2,-2,-2,-2,0
1582293937642612,-1,0,-1,-2,0,-1,0,-2
1582293937657374,0,-1,0,-1,0,1,-1,0
1582293937657374,1,0,-2,-1,1,2,1,2
1582293937657374,-5,-2,-2,-1,-2,-3,-5,-2
1582293937657374,2,0,0,0,-1,0,-1,0
1582293937680479,-3,-1,0,2,1,3,4,-1
1582293937680479,1,-1,0,-1,-1,0,0,3
1582293937680479,-2,-3,-3,-3,-3,0,0,-1
1582293937680479,-1,-2,-1,1,2,-1,1,0
1582293937694323,3,1,0,-3,-1,-2,1,2
1582293937694323,-2,-2,0,1,-2,-3,-3,-3
1582293937702491,0,-3,-1,-1,-2,-1,-2,0
1582293937702491,-3,-1,-1,-1,-3,-1,-1,-1
1582293937717214,0,-1,-3,-3,-1,1,-1,-2
1582293937717214,-2,-2,-1,-1,-2,1,2,-1
1582293937718262,2,-1,-1,-4,0,-2,-1,1
1582293937718262,-2,-2,-3,-2,0,-1,2,-1
1582293937748135,-5,-3,0,0,0,-1,-4,-5
1582293937748135,2,0,0,-2,0,0,1,0
1582293937748135,0,0,-1,0,-1,0,1,-1
1582293937748135,0,0,-1,-2,-1,-3,1,0
1582293937754590,1,0,0,0,-1,-3,-4,-2
1582293937754590,-1,-1,1,1,-1,0,-1,-2
1582293937762285,-1,0,-1,1,-2,-1,-3,0
1582293937762285,3,1,1,0,1,2,1,2
1582293937777585,-4,-1,-2,-4,-2,-1,0,0
1582293937777585,-1,-1,-3,-1,-1,-1,-3,-3
1582293937778100,-1,0,-1,-1,1,-2,-1,-1
1582293937778100,-1,-2,-1,-2,-3,-3,-2,-1
1582293937800991,1,-1,0,-1,-1,-2,0,-1
1582293937800991,-3,-2,0,-1,0,1,-2,-2
1582293937800991,-2,-3,-2,-2,-3,-2,-2,0
1582293937800991,-3,-2,-1,0,1,0,0,-2
1582293937813953,-3,-3,0,-2,0,-1,-1,-4
1582293937813953,0,-2,0,0,-1,-1,0,1
1582293937822139,1,1,-1,1,3,1,5,1
1582293937822139,-1,0,-1,-2,-1,-1,-1,-2
1582293937837891,0,1,0,0,-3,-1,-1,-1
1582293937837891,0,-1,-2,-2,-1,-2,1,-1
1582293937837891,-1,0,-1,1,1,1,-1,2
1582293937837891,0,-1,0,1,-1,-2,-4,1
1582293937860930,2,1,0,-2,-2,0,1,5
1582293937860930,1,0,-1,1,1,0,0,-1
1582293937861272,0,-1,0,-2,-1,-2,-3,-1
1582293937861272,0,-1,-1,-1,-2,-1,-1,-2
1582293937882985,-2,-3,-3,1,-2,-4,-3,-2
1582293937882985,-3,-1,-2,-1,-1,0,-4,1
1582293937883767,-3,-2,-2,-2,-1,0,1,-2
1582293937883767,1,-1,-1,-3,0,-3,-4,0
1582293937896734,1,1,-2,0,-4,-3,-3,0
1582293937896734,0,-1,-1,1,-2,0,1,-2
1582293937897999,-2,0,-1,1,-1,0,-2,-1
1582293937897999,-2,1,-2,0,0,2,0,-3
1582293937920863,2,2,1,0,1,0,-1,-1
1582293937920863,-3,-3,-2,-2,-1,-1,-1,0
1582293937920863,0,0,0,0,-2,0,0,-3
1582293937920863,-2,-1,-1,0,-1,-1,1,0
1582293937943146,1,-1,-1,-2,-1,-2,-2,2
1582293937943146,3,0,-1,-2,-2,-4,-4,0
1582293937943665,-10,-3,0,1,0,0,-2,-8
1582293937943665,0,-1,-2,0,-1,-1,-1,1
1582293937957568,-2,-2,-1,-2,0,-1,1,-1
1582293937957568,1,-1,0,0,0,1,0,-1
1582293937957568,2,1,-2,1,1,0,4,2
1582293937957568,-2,-1,2,-1,-1,-1,0,-1
1582293937980838,1,-1,0,1,-1,-1,-2,0
1582293937980838,-5,-1,0,1,1,3,3,-5
1582293937981520,-1,-1,0,-1,-1,-2,-3,0
1582293937981520,-2,-2,-4,-2,-1,1,0,0
1582293938003009,0,0,0,-2,-1,0,1,-2
1582293938003009,1,2,-1,-3,-1,-2,-3,2
1582293938003448,0,-2,-2,-1,-1,-2,-1,0
1582293938003448,0,0,1,-1,-1,0,-1,-1
1582293938017638,-4,-2,-1,-1,-3,0,-1,-2
1582293938017638,-2,1,1,-2,-2,-2,-2,-2
1582293938017916,-2,-2,-1,-3,-1,-2,-3,-2
1582293938017916,-1,-1,0,1,0,-1,1,-1
1582293938040403,-1,-2,-2,1,2,0,0,-1
1582293938040403,0,-1,-1,0,0,-2,0,0
1582293938041345,0,0,0,-2,-5,-2,-5,0
1582293938041345,-2,-3,-2,-1,-2,-4,-4,-3
1582293938063771,-1,1,0,0,1,0,-1,-2
1582293938063771,-4,-3,-1,-2,-1,0,0,-2
1582293938064308,0,-1,-3,-1,-1,-2,1,-1
1582293938064308,0,-3,-1,0,1,-2,-2,0
1582293938077653,-1,-1,-3,-2,-1,0,0,0
1582293938077653,-2,-3,-2,2,1,2,0,0
1582293938078247,-5,-3,-2,-2,-1,1,-1,-6
1582293938078247,-1,-1,-1,0,0,-1,-2,1
1582293938100235,1,-1,-1,-2,-1,-1,-3,-2
1582293938100235,3,1,-1,-1,-1,0,1,1
1582293938101396,2,0,0,-2,1,2,3,1
1582293938101396,-2,-1,-1,0,1,2,1,-2
1582293938123192,-3,-2,-2,0,-1,0,0,-1
1582293938123192,-1,-1,-1,0,-4,-2,-2,0
1582293938123365,1,0,-2,1,0,-2,0,-1
1582293938123365,1,1,0,-2,-1,-2,0,0
1582293938137294,-3,-1,-1,-2,-1,0,1,-2
1582293938137294,0,1,-3,-3,-4,-3,-2,-1
1582293938138137,0,-1,-1,-1,-1,-2,-2,1
1582293938138137,-1,-2,-2,-3,-2,-3,-1,-2
1582293938161050,0,0,-2,-1,0,-1,1,-1
1582293938161050,2,0,0,-1,0,-1,-1,1
1582293938161306,0,1,1,1,-3,-1,-1,0
1582293938161306,-4,-3,-1,-1,-1,0,0,-4
1582293938189957,-3,-3,0,0,0,-2,-2,-2
1582293938189957,-1,-2,-1,0,0,-2,-1,1
1582293938191121,0,-1,-1,-2,-2,1,-1,1
1582293938191121,0,1,1,0,-3,-1,0,1
1582293938197314,1,-1,-1,0,1,-2,-2,-1
1582293938197314,0,0,0,-1,-1,-2,0,2
1582293938197931,-8,-2,3,1,1,2,2,-7
1582293938197931,1,-1,-3,-1,0,-1,-1,1
1582293938220914,-1,0,-1,0,-1,0,-2,-1
1582293938220914,2,3,-1,1,0,1,1,-1
1582293938220914,1,-1,-3,-3,-2,-2,-2,1
1582293938220914,-1,0,-1,-1,0,-1,0,1
1582293938243006,-7,-3,-1,-1,-1,2,2,-6
1582293938243006,0,-1,0,-1,-1,-1,-3,-2
1582293938244011,0,-2,-5,-3,-2,-2,-1,1
1582293938244011,-4,-1,-1,0,-1,0,0,-2
1582293938256884,2,0,-1,-2,0,0,1,2
1582293938256884,-1,-1,-1,-2,-1,-1,-1,0
1582293938257784,2,-2,-2,1,1,0,0,-1
1582293938257784,-1,-2,-1,-2,0,-3,-3,-4
1582293938280765,-2,-1,-2,-2,-3,-3,-1,0
1582293938280765,-4,-2,-2,-2,-2,-1,-2,-5
1582293938281084,2,0,0,1,0,-1,0,1
1582293938281084,1,-1,-1,-2,-1,0,0,1
1582293938303836,-7,-4,0,-1,1,0,-2,-4
1582293938303836,1,-1,-1,-1,-2,-3,-2,-1
1582293938303836,0,0,0,-1,-2,0,-1,2
1582293938303836,-2,-1,-1,0,-1,-1,-1,-2
1582293938317654,6,1,-1,-1,-2,-3,-2,3
1582293938317654,-3,-1,-2,-3,-2,-1,0,0
1582293938317654,-3,-1,0,0,0,-1,-1,-2
1582293938317654,0,0,0,1,0,2,2,2
1582293938340550,-2,-1,0,0,-1,0,-2,-1
1582293938340550,1,0,0,1,0,-1,-1,1
1582293938340550,1,0,-1,-2,-1,0,2,1
1582293938340550,-1,-1,-2,-1,0,-1,0,-2
1582293938362488,1,0,-2,-1,-1,-2,0,0
1582293938362488,0,0,1,1,2,2,3,0
1582293938363840,-1,-1,1,-2,-2,-2,-3,-2
1582293938363840,-2,-1,-2,-1,0,3,0,0
1582293938377492,-6,-2,-1,0,-1,0,-3,-5
1582293938377492,0,-1,-1,-4,-2,-4,-1,1
1582293938377492,-2,-2,-2,0,0,1,0,-1
1582293938377492,1,-1,0,-3,-1,-1,0,2
1582293938400608,1,2,0,-1,-2,-3,-2,1
1582293938400608,-4,-3,-2,0,1,1,-2,-3
1582293938401438,1,-1,0,1,-1,0,0,-1
1582293938401438,-1,0,-1,-1,-2,-2,-2,-2
1582293938423325,6,1,0,-1,0,1,1,3
1582293938423325,-6,-2,0,1,0,0,-1,-5
1582293938424320,-1,0,-2,-1,-1,0,0,-1
1582293938424320,2,-1,-1,1,-1,-1,-2,1
1582293938436495,-1,-1,-1,-2,-2,2,0,0
1582293938436495,4,1,0,-1,-1,-1,-2,2
1582293938445266,-2,-2,0,-1,0,-2,-3,-1
1582293938445266,-8,-2,-2,0,0,0,1,-6
1582293938460365,1,-3,0,1,-1,0,4,3
1582293938460365,-1,0,-1,-1,0,-1,2,-1
1582293938462218,-2,-1,-1,-2,-1,0,-2,-1
1582293938462218,2,0,1,-3,-2,-1,-3,1
1582293938483218,-6,1,0,1,2,1,0,-4
1582293938483218,-3,-2,-2,-1,-1,0,-1,-3
1582293938484217,2,-1,-1,-3,-3,-2,-1,2
1582293938484217,1,0,-2,-1,0,-2,-1,-1
1582293938496188,-2,-2,-2,0,-1,1,0,-1
1582293938496188,2,0,0,-1,-1,-3,-1,-1
1582293938505262,1,0,-1,-2,0,-2,-2,2
1582293938505262,-15,-7,-2,0,1,0,-2,-10
1582293938520300,0,-1,-1,-3,-2,-4,-3,1
1582293938520300,-1,0,-1,-3,-2,-2,-1,1
1582293938522065,3,0,1,0,-1,-2,3,-1
1582293938522065,4,2,1,-1,-1,0,0,2
1582293938543203,-3,-2,-1,-1,-2,0,1,-3
1582293938543203,0,-3,-4,-1,-1,0,0,-1
1582293938544472,-2,-1,-1,-1,0,-1,-3,-1
1582293938544472,0,-1,0,0,0,-3,0,0
1582293938556277,-1,-2,-3,-3,0,-1,-3,-2
1582293938556277,-8,-4,1,3,3,4,1,-7
1582293938565943,-1,-2,-2,0,1,-1,1,-1
1582293938565943,3,-1,0,-1,-1,0,-2,1
1582293938581110,-6,-3,-2,0,0,-1,-1,-2
1582293938581110,0,-2,-1,-1,-2,-3,0,-1
1582293938582242,0,1,-2,-3,-2,-1,1,-1
1582293938582242,4,2,-1,-3,-1,-1,0,4
1582293938603049,2,-1,-2,-2,-1,-2,-3,1
1582293938603049,-9,-1,-1,-1,-2,0,-1,-3
1582293938604837,1,-1,-1,-2,-1,-1,-1,0
1582293938604837,4,0,0,-2,-2,-1,0,3
1582293938616863,0,-2,0,-2,-3,-3,-1,0
1582293938616863,-3,-2,-1,-1,0,0,-1,-3
1582293938625789,-2,-1,0,-1,0,1,-2,-2
1582293938625789,-5,-1,-1,-2,-1,-2,-1,-4
1582293938640742,-1,-2,-2,0,0,-1,0,0
1582293938640742,2,2,2,0,-2,-1,0,0
1582293938641740,-1,-2,-1,0,-1,-1,-1,-2
1582293938641740,-1,-2,-2,-2,-1,-1,1,-2
1582293938662685,-2,-1,0,-2,0,0,-1,0
1582293938662685,4,2,-3,0,0,-4,-4,3
1582293938664682,-2,-1,0,-1,-2,0,-2,-3
1582293938664682,-2,-4,-2,-1,-1,-1,-2,-3
1582293938676702,-5,0,-1,-1,-1,-2,-4,-3
1582293938676702,1,-1,0,-2,-1,1,-1,0
1582293938685664,-1,-1,-2,-2,-1,-2,-2,0
1582293938685664,-2,-3,-2,1,-1,1,0,-3
1582293938701109,1,-3,0,-1,-1,-3,-1,0
1582293938701109,-9,-3,-1,0,0,1,-1,-5
1582293938706575,-3,0,0,1,0,-1,3,0
1582293938706575,-1,-2,0,-2,-1,0,-2,1
1582293938722528,3,0,-2,-1,-2,1,-1,0
1582293938722528,1,2,-1,-2,1,-1,1,1
1582293938724527,-2,-2,-3,-1,1,-1,-2,-1
1582293938724527,2,-1,-1,0,-3,-2,-2,2
1582293938736693,-5,0,-1,2,0,-1,0,-1
1582293938736693,4,-1,-1,-1,-2,-3,-2,1
1582293938745730,0,0,-1,-1,-3,-2,-1,-1
1582293938745730,-2,-1,-1,0,0,-1,0,-3
1582293938760585,-1,-2,-1,-2,-3,-1,0,-1
1582293938760585,2,0,-1,-1,-1,-1,-2,0
1582293938761754,-1,-1,-3,-4,0,0,1,-1
1582293938761754,1,0,0,0,0,0,0,2
1582293938783609,1,1,-1,-2,-2,-1,0,0
1582293938783609,-1,-1,-2,0,-2,-1,-1,0
1582293938784359,-7,-4,0,2,0,1,1,-5
1582293938784359,-1,0,0,-3,-1,-1,-2,0
1582293938805676,0,2,0,-2,-1,-1,1,-2
1582293938805676,2,-1,-1,-5,-2,-2,0,1
1582293938807314,2,1,-2,-1,-2,-3,0,0
1582293938807314,-3,-2,-4,0,0,0,0,-2
1582293938820791,-1,-2,-1,-2,-1,0,-2,-2
1582293938820791,0,-2,0,-1,-3,-1,-1,0
1582293938822283,1,-1,1,0,-1,-2,-1,1
1582293938822283,-2,0,-2,0,0,0,0,-2
1582293938843279,-5,-3,-1,1,1,2,-1,-5
1582293938843279,0,1,-2,0,0,0,-1,1
1582293938844596,-1,-1,-1,-1,-1,0,-1,-1
1582293938844596,0,-3,-1,-4,-3,-5,-3,0
1582293938865365,-1,-1,-2,-2,-3,1,3,0
1582293938865365,-2,-3,-2,-1,0,-2,-2,-1
1582293938867178,-1,-1,-2,0,0,0,-2,0
1582293938867178,8,4,-1,-1,-2,-2,-1,2
1582293938880674,-4,-2,1,-1,-1,-2,-2,-1
1582293938880674,-4,-3,-3,-1,0,0,-2,-6
1582293938882099,2,1,0,1,2,-1,-2,2
1582293938882099,-1,-2,-1,1,0,1,-1,-2
1582293938903239,3,1,1,-2,0,-2,-2,1
1582293938903239,-7,-4,0,2,4,4,2,-6
1582293938904243,-3,0,0,-2,-1,0,-1,0
1582293938904243,-1,0,1,2,1,-1,-1,-1
1582293938925516,-2,-1,-1,-1,-2,-1,-1,-2
1582293938925516,1,0,2,0,0,1,3,2
1582293938926982,0,-1,-1,-1,-1,-2,-1,-1
1582293938926982,-2,-1,-1,-1,-1,0,1,-1
1582293938949010,1,-2,-2,-1,-2,-3,-2,-1
1582293938949010,1,-1,-2,-2,-3,-3,-3,-1
1582293938950157,0,-2,-1,0,0,1,0,-1
1582293938950157,-2,-1,-1,-1,0,1,0,-1
1582293938963288,1,-1,0,0,1,-2,-3,0
1582293938963288,3,1,-2,-4,-4,-3,-1,2
1582293938964876,-9,-5,-4,-2,-2,-2,-3,-9
1582293938964876,6,3,-1,-4,-4,-6,-3,6
1582293938985932,0,-1,1,1,0,1,0,-1
1582293938985932,0,-2,1,-1,1,0,-2,-1
1582293938986818,1,0,0,-2,-1,-2,-1,2
1582293938986818,-2,0,0,-1,0,-1,0,-1
1582293939000078,2,0,-3,2,2,3,1,-1
1582293939000078,-1,0,-1,-1,-2,-2,-1,2
1582293939006890,-1,-2,-2,-1,-3,-3,-1,1
1582293939006890,-6,-5,-1,1,0,1,-1,-4
1582293939021925,-1,-1,-1,-1,0,-1,0,1
1582293939021925,0,0,-1,0,-1,-1,-2,0
1582293939030766,-1,1,-1,-1,0,1,-1,0
1582293939030766,3,-2,-1,1,-3,0,0,1
1582293939044865,-2,-2,0,-1,-2,-1,-1,-3
1582293939044865,-8,-4,-3,-2,-2,-3,-1,-7
1582293939052941,1,-1,0,-1,1,-1,-2,1
1582293939052941,-4,-2,-1,0,1,1,1,-1
1582293939059864,2,-1,-2,-2,-4,-2,0,1
1582293939059864,3,2,0,0,-1,-1,1,3
1582293939066819,-3,-2,-2,2,0,0,-1,-3
1582293939066819,-2,-2,0,-1,-3,-3,-2,-3
1582293939082763,-3,-1,0,0,-2,-3,-1,-1
1582293939082763,-1,-2,-1,0,0,-1,-2,0
1582293939084554,0,-1,-1,-4,-2,-2,1,0
1582293939084554,-1,-1,0,-1,1,-1,-2,-2
1582293939104927,-1,-1,-2,-4,-2,-1,-1,-2
1582293939104927,0,0,0,0,-1,0,-1,-2
1582293939113491,0,1,0,0,-1,-1,-1,0
1582293939113491,-1,0,0,1,-2,-1,0,-3
1582293939119936,-2,0,-2,-1,0,-1,-1,0
1582293939119936,3,2,0,2,2,3,1,0
1582293939126496,-10,-4,-2,0,-1,-1,-1,-6
1582293939126496,2,0,0,-2,-1,0,1,2
1582293939142592,-1,-2,0,-1,1,0,-1,-2
1582293939142592,-1,-2,-1,-1,-1,-1,-2,-1
1582293939144396,1,0,1,-1,1,-1,-1,-1
1582293939144396,-4,-1,-4,-1,-1,-1,-2,-1
1582293939165546,0,0,1,0,-2,2,3,1
1582293939165546,0,1,-3,-3,1,-2,-2,-1
1582293939171524,0,0,-1,-1,-1,-2,0,0
1582293939171524,-2,-1,-1,-1,-2,-3,-3,-3
1582293939179357,1,-1,-1,1,0,-1,-2,-1
1582293939179357,-2,-1,1,1,-1,0,0,-3
1582293939188329,0,1,-2,-1,0,-2,-1,1
1582293939188329,0,0,-3,-2,-2,1,-1,-1
1582293939203649,-4,-1,-1,2,0,-1,-3,-2
1582293939203649,0,0,0,-1,-3,0,2,1
1582293939204240,4,-1,0,-1,-1,-3,-3,-1
1582293939204240,-10,-4,0,0,1,-1,-2,-3
1582293939225378,1,-1,1,-2,-2,-3,-2,1
1582293939225378,0,1,0,-1,-1,-1,0,-1
1582293939227175,-1,-2,-1,0,-1,3,0,-3
1582293939227175,0,-1,-2,-3,-2,-1,-2,2
1582293939240138,0,0,-1,-2,-2,-2,-1,2
1582293939240138,-2,-1,-1,-1,0,2,1,-1
1582293939247178,3,1,-3,-1,-3,-2,-1,1
1582293939247178,-1,0,1,0,-1,1,-1,-1
1582293939263133,-3,-2,-1,-3,1,0,-2,-3
1582293939263133,1,-1,-1,-1,-4,-3,-3,1
1582293939264220,0,-2,-2,0,-2,0,0,1
1582293939264220,-1,-3,-2,-3,-1,1,-2,-3
1582293939286160,1,0,0,2,-3,-1,-2,-1
1582293939286160,-7,-4,-2,0,1,0,0,-4
1582293939291079,2,2,2,0,-1,-2,-2,1
1582293939291079,0,-1,-1,-1,-1,-1,0,1
1582293939299038,-2,-2,-3,-3,-2,-1,-1,-1
1582293939299038,3,-1,-1,-3,-2,-2,-1,0
1582293939307969,-9,-4,-3,0,-2,-1,-2,-4
1582293939307969,3,-1,-1,0,-2,0,0,1
1582293939322926,-1,1,-2,0,-1,-1,-1,-2
1582293939322926,-1,0,0,-1,-1,-3,-1,-2
1582293939324174,3,0,-1,-3,1,0,-2,2
1582293939324174,-2,0,0,1,0,0,-2,-3
1582293939345856,2,-1,0,-1,-1,-2,0,2
1582293939345856,1,0,0,-1,-2,-2,0,2
1582293939346855,1,0,-2,-4,-2,-1,0,1
1582293939346855,0,0,0,1,0,-1,-1,0
1582293939358877,-1,0,0,0,-2,0,1,1
1582293939358877,-2,-2,0,-1,-2,0,0,-1
1582293939367799,-1,-1,0,-2,-2,0,-2,-1
1582293939367799,3,0,-1,-2,-3,-1,0,-2
1582293939382815,-2,-1,0,-1,0,2,-3,-3
1582293939382815,0,-2,-2,-2,-1,0,-1,-2
1582293939384751,-6,-4,0,1,1,1,0,-4
1582293939384751,0,1,-3,0,-2,0,-1,0
1582293939404921,-2,-1,-1,-1,-2,-2,-2,-2
1582293939404921,1,0,-1,1,0,-2,-3,0
1582293939412679,-8,-4,-2,-1,0,0,-1,-5
1582293939412679,-1,-2,-2,-1,-2,-1,0,-1
1582293939418861,-2,-3,-2,-1,-3,0,0,-3
1582293939418861,0,-1,-2,-2,-1,-2,-1,0
1582293939433763,3,2,1,-2,0,-2,0,-1
1582293939433763,-2,0,-1,-4,-2,-4,-2,-1
1582293939442750,-1,-1,-2,-2,0,-2,0,-2
1582293939442750,-1,1,0,-2,-1,-1,-2,1
1582293939448953,0,0,-1,0,-2,1,2,1
1582293939448953,-3,-1,0,-1,0,1,-1,-2
1582293939465736,-1,0,-1,0,0,-1,-2,-2
1582293939465736,-3,-1,0,-1,-3,-1,-2,-3
1582293939466965,0,-1,0,1,2,-1,-1,1
1582293939466965,0,-1,0,-4,-1,1,0,-2
1582293939479557,-1,-1,0,-1,-1,-1,-1,0
1582293939479557,-1,-1,-2,-1,0,-1,0,-1
1582293939488473,3,-1,-2,-1,-2,-2,-2,1
1582293939488473,1,0,1,-1,0,0,-1,-1
1582293939503483,1,0,-1,-1,-2,-3,-5,1
1582293939503483,-11,-3,-2,-1,-1,-1,-2,-6
1582293939504433,3,-1,-1,-2,-1,0,2,2
1582293939504433,-2,-1,-1,-1,-2,-3,-1,1
1582293939525613,1,-2,-2,-1,-1,0,-1,-2
1582293939525613,2,2,0,0,-3,-1,0,2
1582293939527370,0,1,-1,0,-3,0,1,-1
1582293939527370,-2,-3,-1,1,0,-2,-1,-1
1582293939539348,-3,-1,0,1,-1,0,1,-1
1582293939539348,1,-1,-3,-2,-3,-3,0,1
1582293939548335,1,-2,-1,-1,-1,-2,-1,-1
1582293939548335,-3,0,-1,0,1,0,-2,-3
1582293939563274,-4,-2,-2,0,-1,-3,-1,-3
1582293939563274,3,-1,-1,-2,1,0,0,1
1582293939564276,1,0,0,-2,-1,-4,-3,1
1582293939564276,-2,-1,-1,0,-1,-1,0,-1
1582293939585420,-1,0,-1,-3,-2,0,0,1
1582293939585420,7,2,-3,-2,-3,-2,-2,5
1582293939587209,2,-1,-1,1,-1,0,-2,-2
1582293939587209,1,0,0,0,0,-2,0,2
1582293939599384,-7,-3,-1,-1,0,-1,-2,-7
1582293939599384,0,2,3,-1,-2,0,-1,0
1582293939608196,-3,-1,-3,-3,-1,0,-2,0
1582293939608196,0,0,-3,0,-1,-2,-2,-1
1582293939623113,3,1,0,0,-1,-2,-2,2
1582293939623113,-4,-1,-2,-2,-2,-3,-1,-3
1582293939624110,-2,-1,-1,1,-2,-1,-1,-1
1582293939624110,-1,-2,1,0,-1,-1,0,-3
1582293939645267,1,-2,-2,-3,-3,-3,0,-1
1582293939645267,-3,-3,-2,-2,0,0,-2,-3
1582293939647060,-4,-2,-2,-3,-1,-1,0,-1
1582293939647060,1,1,-1,-1,-3,-2,-1,0
1582293939659161,-4,-3,-1,0,1,2,1,-2
1582293939659161,-3,-3,0,-1,-1,-1,0,-1
1582293939667998,-2,1,0,-2,-2,-1,-2,-1
1582293939667998,0,0,-3,0,1,1,-2,-3
1582293939682998,-4,0,-1,-3,-1,-4,0,1
1582293939682998,-2,-1,-2,1,3,3,2,-4
1582293939688947,-1,-2,-2,2,0,-1,2,-1
1582293939688947,-1,-3,0,-2,-3,-2,0,-2
1582293939705093,5,1,0,-1,-1,-1,-2,2
1582293939705093,0,-1,-1,-1,-2,0,-2,0
1582293939706890,-2,0,0,-1,-2,-1,-2,-3
1582293939706890,-1,-2,-2,-1,-1,1,-1,-1
1582293939728027,0,-1,-1,0,0,-2,-1,-1
1582293939728027,-2,-2,0,0,-1,-3,-2,0
1582293939729879,0,-3,-1,0,0,-1,-3,0
1582293939729879,1,1,-1,0,-1,-2,-2,0
1582293939742845,-2,-4,0,-1,0,-1,1,-3
1582293939742845,-1,0,-2,-2,-2,-1,1,-2
1582293939744793,-3,-2,1,0,-1,1,0,-1
1582293939744793,-1,-2,0,-1,-3,-1,0,-2
1582293939765793,2,0,-1,0,-1,-2,-2,1
1582293939765793,-11,-3,-2,0,1,-2,0,-6
1582293939766730,0,-2,-3,-2,-1,0,-2,0
1582293939766730,-1,-2,0,1,-1,-1,0,1
1582293939787825,-3,-1,0,0,-1,1,-1,-5
1582293939787825,2,0,-1,-1,0,-1,-1,0
1582293939789732,-2,0,0,-1,-1,-1,-1,-1
1582293939789732,-2,-1,-2,0,0,-1,-3,-1
1582293939802853,2,0,0,-2,-2,-4,-1,2
1582293939802853,3,0,-2,0,0,-1,-2,2
1582293939804632,-2,-4,-3,-3,0,-1,0,-2
1582293939804632,0,-2,-3,-2,-1,1,0,0
1582293939825734,-1,-2,-1,-1,-3,0,0,-1
1582293939825734,0,0,-3,0,-3,-1,-1,0
1582293939826792,2,0,0,2,-1,-2,-1,0
1582293939826792,-1,1,1,-2,0,-1,1,-1
1582293939847757,1,1,-3,-2,1,1,-2,1
1582293939847757,-2,-3,0,0,-1,-1,0,0
1582293939849507,-1,0,0,-2,-2,-2,-2,-4
1582293939849507,-2,-2,0,-1,0,-2,0,-3
1582293939862530,-5,-3,-3,-1,2,1,-2,-7
1582293939862530,0,-1,-1,-1,0,-1,0,3
1582293939869520,-2,-1,-2,0,-2,1,0,1
1582293939869520,-4,0,1,-2,0,-1,0,-2
1582293939885635,1,0,-1,-1,-3,-1,0,0
1582293939885635,2,-2,-1,0,-1,0,-2,0
1582293939887409,-1,-2,-1,-1,-1,-2,-1,0
1582293939887409,-2,-3,-2,-1,-2,-2,-3,-2
1582293939908569,0,-1,-1,2,-1,0,0,0
1582293939908569,1,-1,1,-1,-2,-1,-1,-3
1582293939909347,1,2,1,-1,2,-1,2,2
1582293939909347,-1,0,-4,-3,-1,-2,-2,0
1582293939922627,-3,0,-1,-1,-2,-2,-1,-2
1582293939922627,-2,0,-1,-1,-2,-2,-3,-3
1582293939929296,3,-2,-2,0,0,0,-1,-1
1582293939929296,-4,-3,-1,-2,-1,-1,-1,2
1582293939945684,1,-1,-1,0,-1,-2,-1,0
1582293939945684,0,0,-2,-3,-1,-1,-1,-3
1582293939947251,-8,-5,-3,1,3,3,0,-7
1582293939947251,2,2,-1,0,-1,-1,-1,2
1582293939968374,0,0,-1,0,-2,-1,0,0
1582293939968374,-1,0,-1,0,-1,0,-1,0
1582293939969775,1,1,0,-2,-5,-2,-2,2
1582293939969775,-2,-1,-1,0,-2,0,0,-1
1582293939982342,-3,0,2,-1,0,2,-1,-2
1582293939982342,1,0,-1,0,0,-2,-1,-1
1582293939989367,-1,-2,-2,-2,0,-1,0,-1
1582293939989367,-2,-1,-1,-2,-1,-1,-2,-2
1582293940006098,-1,0,-1,-2,-3,-2,-2,-1
1582293940006098,0,-1,0,-1,0,1,0,0
1582293940007224,-1,-2,0,0,0,0,-2,-1
1582293940007224,1,-1,-2,-1,1,0,0,-2
1582293940028182,-3,-1,-2,0,0,-1,-1,2
1582293940028182,-3,-3,-1,-1,-1,-1,0,-4
1582293940029027,-1,0,0,-1,-1,0,-1,0
1582293940029027,1,-2,1,0,0,-1,0,-1
1582293940041993,4,1,-1,-1,-2,-2,0,4
1582293940041993,-2,0,-3,0,-1,-2,-2,0
1582293940049356,1,0,1,-1,-2,-1,-1,0
1582293940049356,-3,0,-1,-1,1,0,-1,-3
1582293940065388,-2,-2,-1,-2,-1,0,-1,-3
1582293940065388,1,-1,-2,-2,1,-1,-2,1
1582293940067420,0,-1,-2,-5,-2,-5,-2,0
1582293940067420,-3,-1,-1,-1,-1,-2,1,0
1582293940088108,-1,-1,-1,-2,-2,0,-1,-1
1582293940088108,0,-1,1,0,-1,-1,-1,0
1582293940089603,-2,-1,0,0,-1,0,-1,0
1582293940089603,0,-1,-2,1,-1,-1,-1,-1
1582293940102020,-2,-2,1,0,0,-1,0,-1
1582293940102020,0,1,0,0,-1,-1,-1,1
1582293940109145,1,0,-2,-2,-2,-1,0,1
1582293940109145,-11,-4,0,-4,-2,-1,-1,-6
1582293940125810,1,-3,-3,-2,0,0,-2,-4
1582293940125810,-1,-2,-2,0,0,-1,-1,-1
1582293940126775,0,-1,-2,0,1,0,0,-2
1582293940126775,3,-1,-1,3,0,0,-1,0
1582293940148065,-3,0,1,-2,-2,-1,0,-1
1582293940148065,0,0,0,-1,-2,-1,0,-2
1582293940149913,-1,-1,-5,-1,0,1,-1,-1
1582293940149913,3,2,-2,0,0,-1,-2,-1
1582293940162669,3,2,-1,-2,-1,-4,-3,3
1582293940162669,-1,-2,0,-2,0,1,0,-1
1582293940176828,-2,-1,0,-1,-1,-2,1,0
1582293940176828,-3,-2,0,-2,-3,1,0,-1
1582293940185828,-1,-1,-1,-1,-1,-1,-1,0
1582293940185828,-2,-1,-2,-2,-1,-1,-1,0
1582293940186605,-1,0,1,0,0,-1,-2,-2
1582293940186605,2,0,-2,-3,-1,-3,0,3
1582293940207609,-3,0,-2,-1,0,-1,1,-1
1582293940207609,0,1,-1,1,-1,-1,-2,-1
1582293940209544,-2,-2,-2,0,-1,1,-1,1
1582293940209544,-9,-3,-1,1,-1,-3,-4,-8
1582293940222685,1,1,0,0,0,0,0,-1
1582293940222685,0,0,-1,0,1,-1,-3,-1
1582293940229015,1,0,-1,0,-2,-2,1,1
1582293940229015,3,-1,-1,-1,-2,2,1,2
1582293940245810,-1,-2,-3,-2,-2,-1,-2,-2
1582293940245810,0,-1,0,-2,-1,-1,-1,0
1582293940246498,-3,-2,0,-1,0,-2,-3,0
1582293940246498,1,-2,-1,0,1,0,-1,-2
1582293940268389,-2,-2,-1,-2,-1,0,-2,-2
1582293940268389,-2,-1,0,-2,0,0,1,-1
1582293940269925,-6,-2,0,-1,1,1,0,-5
1582293940269925,-2,-2,0,-1,-1,-2,-3,1
1582293940281587,0,-3,-2,-1,-1,-1,-2,0
1582293940281587,-3,-3,-3,-1,-2,0,0,-3
1582293940290332,-4,-2,-2,0,-2,0,-4,-3
1582293940290332,3,3,-1,0,2,1,0,3
1582293940305297,-2,-1,0,0,-2,-2,-1,-1
1582293940305297,3,0,0,-1,-1,-1,0,0
1582293940307281,-3,-1,-2,0,-1,-2,0,0
1582293940307281,-3,-3,-2,-3,-2,-3,-3,-4
1582293940328289,0,-2,-2,-1,1,0,-1,-2
1582293940328289,-2,0,-1,0,-1,-1,0,1
1582293940329225,4,0,0,-1,-2,-2,-1,1
1582293940329225,0,-1,1,-2,-1,0,-2,1
1582293940341255,-3,0,1,1,-1,0,0,-1
1582293940341255,-2,-2,-3,-2,-1,-3,0,-3
1582293940350169,-3,0,-2,0,-1,1,2,-2
1582293940350169,-1,1,-2,0,-1,-1,0,-1
1582293940365308,0,1,-1,0,0,0,-2,0
1582293940365308,0,-1,0,-1,0,0,-1,1
1582293940367122,-2,-4,-1,-1,-1,-2,-1,-2
1582293940367122,0,-2,-1,-1,0,-1,0,-1
1582293940388264,-2,-1,0,0,1,0,2,0
1582293940388264,0,2,0,1,1,1,0,-4
1582293940389614,0,1,0,-1,0,-1,-2,-1
1582293940389614,0,0,0,-1,0,-1,-1,-2
1582293940410227,4,0,-2,-1,-1,0,-1,0
1582293940410227,-4,-1,0,-1,-3,0,-2,2
1582293940412002,-4,-2,-1,-1,0,0,0,-2
1582293940412002,0,-1,-2,0,-2,-2,-3,1
1582293940425387,-2,-1,1,0,-1,0,0,-2
1582293940425387,0,-1,-1,-1,0,-1,0,-1
1582293940426967,1,0,-3,-1,-1,-3,0,0
1582293940426967,-3,0,-2,-1,-2,-2,-1,-1
1582293940448095,-2,-2,-2,-3,0,-1,-1,-2
1582293940448095,-1,-1,-2,-1,0,1,-1,-1
1582293940449903,-2,0,0,-1,1,-1,0,-3
1582293940449903,-3,-3,0,-1,2,1,0,-3
1582293940461964,-4,-2,-1,2,1,2,0,-2
1582293940461964,-1,-1,-2,1,-2,-1,0,-2
1582293940470845,0,-2,0,-1,-1,1,-1,1
1582293940470845,4,0,-1,-1,-2,-1,-1,1
1582293940485335,0,-1,-2,-2,-3,-2,0,-1
1582293940485335,1,-2,-2,-1,1,0,-2,-1
1582293940486949,-8,-2,-1,0,2,1,-1,-3
1582293940486949,1,-1,0,-1,-1,-1,-1,1
1582293940508116,-1,-1,0,-1,-2,-1,-2,-1
1582293940508116,1,1,1,-2,1,0,2,0
1582293940509741,5,0,-1,-2,-2,0,-2,2
1582293940509741,-2,-2,-1,-1,-2,0,-2,-2
1582293940521776,-2,-2,-1,-2,0,-2,-1,-2
1582293940521776,0,-2,-1,-2,-2,-1,0,1
1582293940530744,-3,-2,-1,-2,0,0,-1,-2
1582293940530744,-3,1,-1,0,-3,-2,-1,-1
1582293940545848,-1,-2,-2,0,0,-1,-3,-1
1582293940545848,-2,2,-1,1,-2,0,-2,-2
1582293940546643,-1,0,-1,-1,-1,-1,-1,-2
1582293940546643,-3,-2,-1,1,1,1,-1,-5
1582293940567788,0,-1,-1,-1,-1,-2,-1,0
1582293940567788,0,-2,-1,-1,-1,-1,-1,-1
1582293940569631,3,0,0,-2,-3,-1,1,2
1582293940569631,0,0,-1,-3,-1,0,-1,1
1582293940581757,-10,-3,0,1,1,0,1,-6
1582293940581757,-1,-1,2,1,-1,-1,1,0
1582293940590525,3,2,-1,0,-1,-1,0,2
1582293940590525,1,-1,-2,-1,-3,-3,0,0
1582293940605497,3,1,-2,-2,-1,-2,-1,2
1582293940605497,-3,-3,-2,-1,-1,-2,-2,-2
1582293940607479,1,-2,1,-1,-1,-1,-1,-2
1582293940607479,-1,-1,-1,-1,0,-2,0,-1
1582293940627425,1,1,-2,-1,0,0,0,2
1582293940627425,-2,-1,-2,-1,-3,-1,-1,-2
1582293940629420,-3,-4,-3,-1,-1,-3,-2,0
1582293940629420,0,-1,-1,-2,-2,-1,-1,0
1582293940641595,-3,-2,-1,0,0,1,0,-3
1582293940641595,1,0,-1,-1,-2,-3,-2,0
1582293940650369,-1,0,-1,-1,-1,0,0,-2
1582293940650369,-5,-2,-1,-2,-2,-1,0,-2
1582293940665534,3,3,-1,0,-4,-1,-3,0
1582293940665534,0,-2,-2,-1,-1,0,0,1
1582293940667319,-9,-3,2,2,0,-3,-1,-7
1582293940667319,3,1,-3,-3,0,0,-2,0
1582293940688322,-3,-1,-1,-1,-1,2,0,-1
1582293940688322,-1,-2,-1,-3,0,-1,-2,-2
1582293940689741,1,0,-4,-3,-3,-2,-1,2
1582293940689741,-1,0,2,0,-1,-1,-1,-1
1582293940710410,1,0,-1,-2,-2,-4,0,1
1582293940710410,-3,-3,0,1,2,0,-1,-2
1582293940712198,-2,1,-1,-2,-1,0,0,2
1582293940712198,-1,0,-3,-1,-1,0,0,-1
1582293940725632,1,-2,-3,-3,-3,-2,0,-1
1582293940725632,-7,-3,1,3,1,3,0,-7
1582293940727161,1,-1,-2,-1,-1,0,-1,0
1582293940727161,-1,1,0,0,-1,-1,-2,0
1582293940748160,2,1,2,-1,0,2,-1,1
1582293940748160,-4,1,-3,0,-2,-1,1,3
1582293940749187,-1,-1,-1,-1,-1,2,0,-1
1582293940749187,-1,-1,0,0,-1,-2,0,-2
1582293940770238,-2,-1,-1,0,0,0,-2,-2
1582293940770238,3,0,0,-2,-4,-3,-2,1
1582293940772040,2,0,0,0,-1,-2,1,1
1582293940772040,-1,-1,-3,0,-1,-2,-1,-1
1582293940784175,-2,-2,0,-2,-2,-1,0,1
1582293940784175,-2,0,-2,-2,-1,-1,-1,-1
1582293940793038,-4,-2,1,0,2,0,-1,-6
1582293940793038,0,0,0,-2,0,1,-1,-1
1582293940808123,-7,-4,-2,1,0,1,0,-5
1582293940808123,-1,-1,-2,-3,-3,0,-1,0
1582293940809563,-2,0,-1,1,-1,0,-1,-1
1582293940809563,-1,0,0,1,2,-1,1,0
1582293940830040,1,-1,0,-2,1,-1,-1,0
1582293940830040,2,1,-1,0,-3,-1,-2,2
1582293940837054,-8,-3,-2,-2,-2,-3,-2,-3
1582293940837054,0,-1,0,-1,-1,-1,-2,-2
1582293940853049,0,-2,0,-1,-3,-3,-2,-1
1582293940853049,0,-1,-1,-1,0,0,-1,-2
1582293940854867,3,0,1,-2,0,-1,0,3
1582293940854867,-1,-2,-1,-1,-2,-1,-1,-2
1582293940867847,0,1,-3,-2,-2,-2,0,-1
1582293940867847,-1,-1,-1,-1,0,-1,-1,0
1582293940869778,0,-1,-1,-1,0,-1,-1,0
1582293940869778,-1,-2,-1,0,-2,-2,-2,0
1582293940890721,0,0,-3,-2,-1,-2,-1,-1
1582293940890721,-2,-1,0,-1,0,-3,-2,-1
1582293940891864,-1,-2,-2,-4,-15,-6,-1,1
1582293940891864,-1,-1,-2,1,13,4,-2,0
1582293940904922,0,0,-3,-2,-9,-1,0,-2
1582293940904922,-2,0,-1,2,2,5,0,-2
1582293940911878,2,0,-3,1,8,1,-2,1
1582293940911878,0,0,-2,-14,-20,-6,-2,-1
1582293940928167,0,1,1,13,9,-1,-2,0
1582293940928167,-1,-2,1,0,-8,-5,1,0
1582293940929620,-1,-2,0,0,16,4,2,1
1582293940929620,3,-3,-2,2,-3,0,0,-2
1582293940950769,-9,-3,-1,-5,-1,-4,-3,-2
1582293940950769,1,-2,-2,-12,-17,-6,-3,-2
1582293940951561,0,-1,-1,7,-1,-3,-1,0
1582293940951561,-1,-1,-3,-1,14,7,1,0
1582293940963683,2,-2,-2,-12,-5,0,-2,0
1582293940963683,-1,0,0,8,-28,-8,0,1
1582293940972767,0,1,0,1,41,10,1,1
1582293940972767,-1,-1,0,-3,-18,-8,-1,1
1582293940987667,-2,-1,0,2,-6,0,0,-2
1582293940987667,-2,-2,-3,-1,22,3,-1,-2
1582293940989460,-1,-2,-1,-7,-24,-6,-5,-1
1582293940989460,-2,0,0,-1,4,1,0,-1
1582293941010607,1,0,1,4,1,-1,-2,1
1582293941010607,-4,-3,-2,-3,7,-3,-3,-2
1582293941016436,-1,0,-2,-6,-20,-4,1,0
1582293941016436,0,-1,3,16,30,11,1,2
1582293941024364,2,-1,1,1,2,1,1,0
1582293941024364,-2,0,-2,-3,0,1,-3,-2
1582293941033354,1,0,0,-3,-8,-1,-2,-1
1582293941033354,-5,-1,-4,-7,-17,-8,-3,-3
1582293941048302,2,-2,-5,-2,0,1,2,1
1582293941048302,2,-2,1,1,7,2,1,-2
1582293941049376,-4,-2,-1,1,-9,-5,-1,-6
1582293941049376,0,1,-1,-1,-4,-3,-1,-1
1582293941070394,0,-1,-1,-1,7,2,-1,-1
1582293941070394,1,0,0,-4,-2,-2,0,3
1582293941072248,1,-1,-1,-1,-2,1,-1,-1
1582293941072248,-1,-2,-1,-1,2,0,1,-1
1582293941084395,-2,0,-2,-3,-3,-1,-1,-1
1582293941084395,0,-1,-2,0,-2,-3,-1,1
1582293941093228,-1,-1,-2,1,0,-1,0,-1
1582293941093228,-3,0,0,-1,1,-3,-3,0
1582293941115333,0,-1,-1,-2,-3,-2,-1,-1
1582293941115333,0,1,-1,0,1,1,-1,-1
1582293941117179,-2,-1,-1,1,2,-1,-2,-1
1582293941117179,1,-1,-2,-3,-6,-4,-3,-1
1582293941131080,-1,0,0,-1,-1,-1,0,-1
1582293941131080,-3,-3,-3,-1,2,2,0,-3
1582293941132084,2,0,-1,-2,-8,-3,-2,0
1582293941132084,-1,-1,0,0,-2,2,1,-1
1582293941144255,-2,-1,-2,1,6,0,0,-3
1582293941144255,0,1,0,0,-1,2,0,1
1582293941153025,-1,-2,-2,-2,0,0,-1,0
1582293941153025,0,1,-2,-1,-8,-3,-2,-1
1582293941168187,1,-1,1,-1,0,-1,-1,0
1582293941168187,-9,-1,-2,-1,1,-1,-1,-5
1582293941169273,1,0,-2,-3,-5,-3,0,1
1582293941169273,-1,-2,-1,-1,5,2,-2,2
1582293941189920,1,1,0,0,-15,-6,0,-1
1582293941189920,0,0,1,3,20,6,0,1
1582293941191965,-3,0,-2,0,-2,-3,1,-2
1582293941191965,-2,-1,-2,0,-2,-3,1,-1
1582293941204110,-2,0,-2,-3,-1,-1,-2,0
1582293941204110,0,-3,-2,-3,-9,-4,-1,-1
1582293941212866,-1,0,0,0,-2,-1,-1,-1
1582293941212866,0,-2,1,1,3,-1,-2,1
1582293941228011,-3,-1,0,1,6,4,1,-2
1582293941228011,1,-1,-1,0,-4,0,0,-2
1582293941229815,-1,-3,0,-1,5,1,-1,0
1582293941229815,-2,-1,-2,-3,-10,-5,0,-3
1582293941250821,3,0,1,-2,-2,-2,-3,1
1582293941250821,-4,-3,-2,-1,-1,0,-2,-2
1582293941251859,7,1,0,-1,-2,-4,-2,3
1582293941251859,-6,-3,-1,-1,-1,0,0,-4
1582293941263917,-2,0,-3,-1,5,-1,-3,-1
1582293941263917,2,2,-1,-2,-18,-5,-1,3
1582293941272888,-1,-2,1,2,19,5,-1,0
1582293941272888,1,1,0,0,-3,-1,-1,0
1582293941288369,-2,0,-2,-1,1,1,2,1
1582293941288369,-5,-2,-1,0,-5,-5,-2,-5
1582293941289831,-5,-1,-3,-1,-5,-1,-1,-4
1582293941289831,1,0,0,2,4,3,-1,-2
1582293941310838,2,-1,-1,0,-5,-5,-2,4
1582293941310838,-1,-1,0,-2,0,0,-1,0
1582293941311775,-3,-1,-1,0,-2,-2,-1,-3
1582293941311775,-1,-2,-2,-3,3,-1,-3,-2
1582293941323791,4,3,0,-3,-7,-5,-3,4
1582293941323791,0,-1,-1,-1,2,0,1,1
1582293941332778,-1,0,-1,-2,-2,1,-2,-1
1582293941332778,-1,-1,0,-3,-5,-4,-2,0
1582293941348200,-1,-3,-3,-1,-1,0,-2,-4
1582293941348200,-9,-3,-1,0,2,-1,-1,-5
1582293941349669,0,-1,-1,0,-4,-1,-1,-1
1582293941349669,0,-1,-2,-2,-4,0,0,1
1582293941370613,-2,0,-2,-1,-2,-1,1,-2
1582293941370613,1,-1,-1,0,4,1,-1,1
1582293941372369,-2,-2,-3,-1,-5,-2,-2,-1
1582293941372369,-3,-1,-2,-1,2,-1,1,-2
1582293941383621,3,-2,-1,-1,-1,-2,-1,1
1582293941383621,4,-1,-3,-2,-3,-1,2,1
1582293941393070,0,1,0,0,-4,-4,-1,-1
1582293941393070,2,0,0,-1,1,0,-2,1
1582293941407562,0,0,0,0,-1,-1,0,2
1582293941407562,2,-1,-1,-2,0,0,-1,0
1582293941409520,0,-1,-1,0,0,0,-1,-1
1582293941409520,0,0,-2,0,-3,-2,-2,-2
1582293941430459,-3,-3,-2,-3,-2,1,-1,-3
1582293941430459,0,-1,-1,-1,-1,0,0,1
1582293941431805,-1,-1,-1,0,-2,-1,1,-1
1582293941431805,1,-2,1,-1,-1,1,-2,-2
1582293941444545,-4,-1,-2,0,1,0,0,-4
1582293941444545,4,-1,-1,-2,0,0,-1,0
1582293941453393,-6,-4,-1,-1,0,0,-1,-2
1582293941453393,-1,-2,-2,0,0,-1,-1,-1
1582293941468574,1,-3,0,-1,-2,-1,-1,0
1582293941468574,0,1,0,0,-1,-1,-2,-1
1582293941469354,2,1,-2,-1,-2,-1,-1,1
1582293941469354,0,-1,-1,0,0,-1,-1,1
1582293941490620,-3,0,0,1,3,3,-1,-4
1582293941490620,0,1,-1,0,0,0,-2,0
1582293941492289,-7,-3,-2,-1,0,1,1,-4
1582293941492289,0,0,-2,0,-3,-2,-2,-2
1582293941504451,-2,-2,-2,-1,-1,-2,0,-2
1582293941504451,-1,0,0,-1,-1,-1,0,-2
1582293941513387,-1,-2,0,-2,-2,-2,0,1
1582293941513387,-2,-2,-1,0,-1,-1,0,-4
1582293941527596,-2,-3,0,0,1,1,2,-1
1582293941527596,-1,1,0,-1,0,-2,-3,-2
1582293941529345,1,0,-2,-2,0,-1,-1,-1
1582293941529345,0,0,0,0,-1,-2,-1,0
1582293941551300,1,0,-1,1,1,0,-1,1
1582293941551300,-5,-5,-2,-1,-3,-1,1,0
1582293941556276,1,2,0,-2,0,-1,-5,-2
1582293941556276,-4,-2,0,-2,2,2,1,-3
1582293941564455,0,1,-1,-1,-2,-2,-1,0
1582293941564455,-5,-3,-1,-1,-1,1,1,-3
1582293941573237,0,-2,-2,-2,-1,0,-2,0
1582293941573237,2,0,-2,-3,-4,-4,0,2
1582293941588210,0,1,0,0,0,-2,-1,-1
1582293941588210,1,1,-1,-1,-1,-1,-1,0
1582293941589318,-1,-2,-2,-1,-1,1,1,1
1582293941589318,-1,0,0,0,0,-1,0,-1
1582293941610352,-2,-4,0,-2,-2,0,-1,-2
1582293941610352,1,0,0,0,-2,-2,-2,0
1582293941612125,1,1,0,0,0,-1,0,-1
1582293941612125,0,0,-3,-1,1,-1,-2,-1
1582293941633248,0,0,0,0,0,1,-1,-2
1582293941633248,-2,-1,-1,0,-1,-2,-2,-1
1582293941634622,4,-1,-2,-4,-2,-2,1,1
1582293941634622,4,2,0,0,0,-2,0,2
1582293941648235,-9,-2,-1,2,0,2,2,-6
1582293941648235,-3,-1,1,1,2,1,-2,-6
1582293941649325,0,-1,-1,1,-3,-1,-2,0
1582293941649325,-3,-2,0,-1,0,2,-1,-2
1582293941670997,1,-1,-2,-1,0,-1,-1,0
1582293941670997,4,1,0,1,1,-2,-2,1
1582293941671964,-6,-4,-2,1,0,1,1,-4
1582293941671964,1,-1,0,-2,-2,-1,-1,0
1582293941693102,-7,-5,-1,-2,0,1,-1,-4
1582293941693102,-2,-1,-3,-3,-3,-3,-1,1
1582293941694155,-1,0,-2,-1,-4,-3,-1,-1
1582293941694155,-3,-3,-1,-3,-3,0,-2,-2
1582293941708233,-1,-2,-1,-2,-1,-2,0,-1
1582293941708233,-2,0,-1,0,-2,-1,0,0
1582293941709862,1,-2,-2,-1,1,-1,-2,1
1582293941709862,0,0,0,-1,-1,-1,0,-2
1582293941731094,-1,0,-1,-2,0,0,-2,0
1582293941731094,3,-1,1,-1,-1,-1,-2,-1
1582293941731805,-10,-2,0,-1,0,0,-2,-4
1582293941731805,-1,-1,-3,0,0,-2,-1,-1
1582293941753184,7,1,0,-1,-3,-4,-4,5
1582293941753184,2,0,0,-3,-2,-2,-2,1
1582293941754749,5,2,0,-2,-2,-2,0,2
1582293941754749,-1,-2,-3,-1,-1,-1,0,-1
1582293941767910,0,1,0,-1,-2,-2,-2,-1
1582293941767910,-1,-2,-1,-2,-2,-2,-1,-1
1582293941769707,-1,-1,0,1,0,-3,-2,-1
1582293941769707,0,0,-1,1,-1,-2,-2,0
1582293941790650,0,-1,-1,0,0,2,1,0
1582293941790650,2,0,-2,-2,-4,-4,-4,-1
1582293941791831,0,-1,-1,-1,1,2,0,-2
1582293941791831,-3,0,-1,0,2,0,-3,-2
1582293941812588,-3,-2,-2,-1,-2,-3,-1,-3
1582293941812588,-2,0,-2,-3,-2,-1,0,-3
1582293941812834,2,0,1,-2,-1,0,-2,-1
1582293941812834,-1,-2,-2,-1,-1,0,0,1
1582293941826688,0,1,0,-1,-3,-4,-3,1
1582293941826688,-4,-3,-1,-1,2,1,0,-2
1582293941842692,6,3,-1,-2,-2,-2,0,1
1582293941842692,-1,0,0,-1,-1,-1,1,1
1582293941849940,-5,-3,-3,-2,-1,1,-2,-6
1582293941849940,-2,-1,0,0,-1,0,0,-1
1582293941850542,0,0,0,0,0,-1,-1,-1
1582293941850542,2,-1,-1,-2,-1,0,0,0
1582293941880777,-1,0,-2,-1,0,-2,0,0
1582293941880777,0,0,-1,0,1,-1,1,0
1582293941881452,-2,-1,-1,0,1,-2,-2,-2
1582293941881452,-2,-1,-1,1,-1,0,-1,-2
1582293941887478,-1,-1,-1,1,0,1,1,-3
1582293941887478,-3,-2,-1,-2,-1,2,1,-1
1582293941887478,-2,-1,-1,0,0,0,-2,-2
1582293941887478,-2,-1,-1,-1,-3,-1,0,0
1582293941909531,0,-1,0,-1,-1,-2,-1,0
1582293941909531,1,-1,-2,-3,-2,-3,-2,3
1582293941910331,1,0,-1,0,-3,-1,0,1
1582293941910331,-4,-3,-2,-1,-2,1,1,-1
1582293941932478,0,-1,-1,-1,-2,-2,-2,-2
1582293941932478,-1,0,0,-1,0,1,-1,-1
1582293941933264,-3,0,-1,-2,-2,-1,-1,1
1582293941933264,-1,-2,1,1,2,4,2,-2
1582293941957208,0,-2,-1,-2,-3,-2,-5,-2
1582293941957208,0,0,-1,-1,-1,-3,-3,-1
1582293941957431,2,-3,-3,-1,2,1,1,0
1582293941957431,-4,-2,-2,-4,-3,-4,-2,-3
1582293941970167,0,0,-1,-1,-3,1,0,-1
1582293941970167,-2,-1,-1,-2,-2,-2,1,-2
1582293941970167,1,-1,0,-1,-2,-3,-2,-1
1582293941970167,2,0,-1,-2,0,-2,-2,1
1582293941992297,-5,-3,-2,-2,2,0,0,-3
1582293941992297,-2,-1,-3,1,0,0,-1,-1
1582293941993104,-2,-3,-3,0,-1,-2,-1,-1
1582293941993104,0,0,-2,0,-1,-3,-3,0
1582293942007083,-1,2,1,-1,-2,0,0,1
1582293942007083,-1,-1,-2,1,0,0,1,0
1582293942008277,-3,-3,-1,0,1,-1,0,-3
1582293942008277,-1,2,1,-1,-1,-3,-2,-3
1582293942030187,0,0,1,-1,-1,-2,-2,1
1582293942030187,-1,-3,-1,-1,-1,0,-1,-1
1582293942030187,0,1,0,-3,-2,-1,-2,-1
1582293942030187,0,-2,-2,-1,-1,-2,1,-2
1582293942052287,0,0,-3,-1,-3,-1,-3,0
1582293942052287,0,-1,-2,-3,-1,-3,-2,0
1582293942053001,-4,-3,0,1,-3,0,-2,-2
1582293942053001,2,1,-2,-1,0,0,2,3
1582293942075125,-2,-2,0,-1,1,-1,0,-2
1582293942075125,0,-1,0,-1,-1,-2,-1,1
1582293942075888,-6,0,0,0,1,1,0,0
1582293942075888,1,0,-2,-1,-1,-1,-2,0
1582293942090003,2,-2,0,-1,0,-1,0,0
1582293942090003,0,0,-2,-1,-1,0,1,-2
1582293942090003,4,0,-2,-2,-2,-4,-3,1
1582293942090003,-2,0,1,-1,1,3,1,0
1582293942111977,-2,-1,-1,2,-1,-2,0,-1
1582293942111977,3,0,2,2,3,7,8,2
1582293942112923,-1,-2,-2,-1,-1,-2,1,-2
1582293942112923,-1,-1,0,-2,1,-1,0,-3
1582293942126950,-2,-1,-1,-2,0,-1,1,-1
1582293942126950,-6,-3,-1,-2,-2,-4,-4,-3
1582293942127746,-1,1,-2,-1,-2,-1,-2,-2
1582293942127746,-1,-2,1,2,-2,-2,-1,-1
1582293942150026,-2,1,1,-2,0,2,2,-1
1582293942150026,-3,0,-2,1,-1,-2,-1,-3
1582293942150754,1,2,0,-1,-1,2,1,-1
1582293942150754,-1,-1,-1,-1,0,-2,-2,-1
1582293942171635,1,0,-2,-2,1,-1,-1,-1
1582293942171635,-2,-2,-2,-2,-2,-1,-2,0
1582293942172754,3,0,0,0,-2,-2,-1,-1
1582293942172754,-2,-2,-1,-1,-1,-1,-1,-1
1582293942187699,-4,-3,-3,-3,-4,-2,-2,-3
1582293942187699,1,0,1,0,-9,-2,2,0
1582293942187699,-2,-1,-1,1,14,4,-1,0
1582293942187699,3,1,-2,-1,-2,-3,-2,3
1582293942209740,0,-2,-1,-2,1,-2,0,0
1582293942209740,-5,-2,0,-3,-4,-2,-5,-3
1582293942210527,1,1,-1,-2,-5,0,3,0
1582293942210527,-2,-1,-3,-1,1,-2,-1,-1
1582293942232469,0,-2,1,-1,-3,0,2,2
1582293942232469,-2,-3,-3,-1,1,-1,-2,-1
1582293942232469,1,-1,-2,-1,-3,0,2,1
1582293942232469,-3,-1,-1,-1,2,-1,-2,-2
1582293942246760,-8,-4,-2,1,2,3,0,-3
1582293942246760,3,0,-1,-3,1,-1,-1,-1
1582293942254901,-4,-3,-1,-1,-1,0,-1,-1
1582293942254901,0,-2,0,-1,-5,-3,-2,-3
1582293942270363,2,1,1,2,-1,-1,-1,2
1582293942270363,-3,-2,-2,-1,2,-3,-4,0
1582293942270539,-3,-1,-2,-1,-5,-1,-2,-2
1582293942270539,-1,0,-1,-1,-2,0,0,-1
1582293942292458,1,-1,-1,-3,-1,0,-1,-1
1582293942292458,-2,-1,-2,-2,1,-2,0,-1
1582293942293314,0,0,1,-3,-3,-4,-2,-2
1582293942293314,-2,-3,-1,-1,-1,-1,-1,-2
1582293942315675,0,-1,-2,0,3,0,0,-1
1582293942315675,-2,-1,-1,-2,-17,-6,0,-1
1582293942316291,-1,-1,2,3,17,5,0,-1
1582293942316291,4,1,1,0,-1,1,-1,1
1582293942329457,-4,-2,-2,-1,-2,-3,-2,1
1582293942329457,-1,0,-1,-1,2,1,0,-2
1582293942330208,-5,-3,-1,-2,-7,-3,-1,-4
1582293942330208,-4,-2,0,1,-1,2,-1,-4
1582293942352338,5,0,0,-2,0,-1,-1,1
1582293942352338,-2,-2,-1,-1,-1,-4,-5,-1
1582293942353334,-2,-2,-1,-1,-2,0,2,0
1582293942353334,0,0,0,-1,0,-1,-2,-1
1582293942366249,-1,-1,-2,-2,-4,-4,-4,-2
1582293942366249,2,1,0,-1,3,-1,-1,2
1582293942375144,-3,0,-1,-2,-4,-4,-4,-1
1582293942375144,1,-2,-2,-3,-3,-4,-1,-2
1582293942390041,0,0,-1,-1,-2,-1,-1,-2
1582293942390041,1,-1,1,0,2,1,-1,2
1582293942390041,1,-2,-1,0,-2,0,-2,1
1582293942390041,-4,-2,-2,-2,-2,0,1,-2
1582293942411986,0,-2,-1,0,-1,-2,-1,-4
1582293942411986,0,1,-1,1,3,3,0,-1
1582293942413190,-1,-1,0,-2,-5,-2,-1,-3
1582293942413190,-3,-2,-1,-1,-1,-3,-4,-2
1582293942426945,-1,-2,-1,-2,0,1,0,-2
1582293942426945,-3,-2,1,-1,2,0,-1,0
1582293942435141,-1,-1,-2,-4,-6,-3,-4,-5
1582293942435141,0,0,-2,-1,-2,-1,-1,0
1582293942449951,-1,1,-1,-1,0,2,-1,-1
1582293942449951,-2,1,-1,0,1,2,1,-2
1582293942450198,0,3,-2,0,1,-3,-1,-1
1582293942450198,0,0,0,-1,-1,-2,1,0
1582293942471879,-1,0,0,1,-1,0,-1,1
1582293942471879,-1,-2,0,0,2,1,-1,0
1582293942472821,1,-1,0,-2,-2,-1,-1,0
1582293942472821,-1,-1,-3,-1,0,-1,-1,-2
1582293942486882,0,-1,1,0,-2,0,1,2
1582293942486882,0,0,-3,-1,-1,-2,-1,-4
1582293942494995,1,0,-1,-1,0,-1,-2,-1
1582293942494995,-3,-3,-2,-1,-1,-4,-4,-3
1582293942510060,0,1,2,-1,-1,0,-2,-1
1582293942510060,-3,-1,0,-1,0,0,-1,-1
1582293942510720,1,0,-3,-1,-3,1,-2,0
1582293942510720,-1,-1,0,-1,0,1,2,1
1582293942532662,-10,-2,-4,1,-1,-1,-3,-5
1582293942532662,2,-2,-1,-1,-2,-2,0,0
1582293942532662,-3,0,-1,0,1,-2,-1,-1
1582293942532662,2,0,0,0,0,1,1,2
1582293942546682,2,0,0,-1,0,-1,-1,0
1582293942546682,-3,-2,-2,-2,-3,-1,0,-1
1582293942554661,1,-2,-1,-1,-1,-1,-1,0
1582293942554661,-2,0,-2,0,0,1,2,-3
1582293942569763,2,0,-2,-2,-2,-4,0,-1
1582293942569763,-1,0,-2,0,-1,1,0,-2
1582293942570610,-2,-1,0,-2,-3,0,-1,1
1582293942570610,-2,-3,-2,1,-1,-2,0,0
1582293942592568,0,-2,-1,-1,0,-1,0,1
1582293942592568,0,-2,-2,0,-1,-2,-3,-1
1582293942592568,-1,-3,-2,0,1,0,1,-2
1582293942592568,-2,1,1,0,-2,0,-1,-2
1582293942615735,-1,0,0,-1,-2,0,0,0
1582293942615735,-1,0,0,-1,1,1,0,-1
1582293942616498,-2,-1,-1,0,0,-2,-3,-2
1582293942616498,-1,-2,-1,-3,-2,-1,-1,-1
1582293942629874,1,0,0,0,1,-1,0,0
1582293942629874,-1,-1,-1,-1,-1,-1,-2,-1
1582293942630404,-1,0,-2,-1,-1,2,3,0
1582293942630404,-1,-2,-2,0,1,4,-1,1
1582293942652477,0,0,-1,-3,-1,-1,0,1
1582293942652477,2,1,0,0,-1,0,-1,2
1582293942653337,-1,-1,-1,-1,-1,-1,1,-1
1582293942653337,0,-3,-1,0,-1,-3,-2,-1
1582293942675471,0,-3,-1,1,-1,0,0,1
1582293942675471,0,-1,-1,-2,-1,-3,0,-1
1582293942676484,0,-1,-1,-1,-1,-3,-1,-2
1582293942676484,0,0,-1,0,0,-1,-1,0
1582293942689246,-3,-2,-1,0,0,-1,-3,-3
1582293942689246,-1,-1,-1,-3,1,-2,0,0
1582293942690371,-1,-2,0,1,0,0,3,0
1582293942690371,-1,-1,-1,-4,0,-2,-1,-2
1582293942712369,-1,0,-3,0,-1,0,1,-1
1582293942712369,-1,-1,-1,0,-1,-2,-1,-2
1582293942713338,0,0,-1,-1,-1,-1,-3,0
1582293942713338,2,0,-1,0,0,3,2,2
1582293942734338,-1,-2,-2,-2,-3,-4,-2,-1
1582293942734338,-3,-3,0,-2,0,2,0,-2
1582293942742292,-1,-1,-2,-2,-2,-2,-1,1
1582293942742292,-1,0,-2,0,-2,-2,-4,0
1582293942750081,-2,-1,1,-2,-2,-2,-2,-2
1582293942750081,-1,-1,-2,1,-2,-2,1,-1
1582293942750081,1,-2,-1,-1,-2,-1,-2,-3
1582293942750081,-3,0,0,-2,0,-4,-2,-2
1582293942772082,0,1,-1,-1,-2,1,3,1
1582293942772082,0,-3,-1,-2,-2,-2,-2,0
1582293942773168,0,0,-2,-1,-1,1,-1,-2
1582293942773168,-1,-2,1,-2,-3,-2,-3,0
1582293942795488,-2,-2,-1,-1,-1,-1,-2,0
1582293942795488,-2,0,0,0,-1,1,1,-1
1582293942795960,1,0,-1,2,0,-1,0,-2
1582293942795960,-1,0,-2,-2,0,-2,-1,-1
1582293942810116,-2,0,0,-1,0,-1,-3,-2
1582293942810116,-2,0,-3,0,-3,-2,-2,-1
1582293942810116,0,0,0,-2,-1,-1,-1,-1
1582293942810116,-1,-2,-2,1,-1,0,-1,-3
1582293942832011,1,-2,0,-1,1,-1,-3,-1
1582293942832011,-1,-1,-2,-1,-1,-1,-2,0
1582293942839892,-1,1,-1,-2,0,-2,-1,-1
1582293942839892,-1,-1,-2,-1,-2,-2,-1,-3
1582293942855122,-1,-1,0,-2,-1,-1,-1,-2
1582293942855122,-2,-1,-1,0,-1,-1,-1,-3
1582293942855805,-1,-1,0,-1,0,1,-1,2
1582293942855805,-1,-1,-1,-3,-1,-2,-2,0
1582293942870188,1,1,-1,0,-1,-1,2,0
1582293942870188,1,0,0,-1,-2,-3,-1,-2
1582293942870755,-1,-1,-2,-1,-2,-2,-1,-1
1582293942870755,-2,-2,0,-1,-1,-1,-2,-1
1582293942892896,-1,-1,-3,-2,-2,-2,-1,-3
1582293942892896,-2,0,-1,-1,-2,-3,-5,-2
1582293942893700,-2,-2,-1,0,0,0,0,-1
1582293942893700,1,-1,0,0,-1,-1,0,0
1582293942915766,0,-2,-1,-3,-1,-2,-1,-1
1582293942915766,-1,-2,-2,0,-2,-2,0,0
1582293942915766,-1,0,-1,-2,0,-2,-1,-1
1582293942915766,-1,-1,0,0,0,0,1,-2
1582293942929749,-1,0,-3,1,1,-1,-3,-1
1582293942929749,-1,-1,-2,-1,-2,0,0,0
1582293942930810,-1,-2,1,-1,-2,0,-1,-1
1582293942930810,-1,0,-1,-1,0,-1,1,-1
1582293942952762,-1,1,0,0,-1,0,1,2
1582293942952762,-1,-2,-1,-1,-1,-1,-4,-1
1582293942953539,0,-1,-2,0,-1,2,1,0
1582293942953539,-2,-1,-2,-1,-1,-1,0,-1
1582293942975671,0,-3,-1,-1,-1,-2,-2,0
1582293942975671,-1,0,-1,-1,-1,0,0,-2
1582293942976484,-2,-3,0,-2,-2,-2,-1,-1
1582293942976484,0,1,-1,0,0,0,2,0
1582293942990014,-1,-1,-1,0,0,1,0,-1
1582293942990014,0,0,-1,1,-1,1,0,2
1582293942990439,-1,-3,-2,0,-1,-1,-4,-3
1582293942990439,-2,-1,-2,-4,-3,-1,-1,-2
1582293943012521,-1,-2,-1,-3,-3,-1,-3,-2
1582293943012521,0,0,-1,0,-1,0,1,-1
1582293943013375,-1,1,-1,-1,0,0,0,0
1582293943013375,0,-1,1,-1,0,0,-3,0
1582293943035462,-1,-1,-1,-1,0,-1,0,0
1582293943035462,-2,0,1,-3,1,0,0,-2
1582293943036367,-1,-1,-4,-1,-2,0,0,0
1582293943036367,-3,-1,-2,1,-1,0,-1,0
1582293943049877,-2,-2,-3,-1,-1,-1,-1,-2
1582293943049877,0,-2,0,-1,1,1,-1,1
1582293943050275,0,0,2,0,0,-1,0,0
1582293943050275,0,-1,-1,1,-2,1,0,0
1582293943073217,-1,-2,2,1,0,1,1,-1
1582293943073217,0,-1,-1,-2,-1,-4,-5,-3
1582293943073217,0,-1,-1,-2,0,2,2,0
1582293943073217,0,-1,-1,-2,1,-1,-2,-3
1582293943094360,0,-1,-1,1,-2,-3,-3,-1
1582293943094360,-1,-3,-1,-1,-1,2,1,-2
1582293943102325,-1,0,0,0,-2,-2,-1,-1
1582293943102325,-1,-1,-1,-2,1,-1,-1,-1
1582293943110364,-1,-2,-1,-2,-2,-1,0,0
1582293943110364,-2,0,-2,-3,-2,0,0,-2
1582293943110364,0,-1,-1,-2,-2,-2,-1,-2
1582293943110364,0,-3,-1,0,-3,0,-2,0
1582293943133259,-1,-1,-2,0,0,-2,-2,0
1582293943133259,0,-3,0,0,-1,-1,-1,-1
1582293943134053,-1,-1,-2,0,-1,-2,-1,-3
1582293943134053,-2,-1,-1,-2,0,0,1,-1
1582293943155177,0,-1,0,1,-1,2,3,1
1582293943155177,-1,1,0,-1,1,-1,0,0
1582293943155997,-2,-1,0,-1,0,1,2,1
1582293943155997,-1,0,1,-1,-2,0,-3,-2
1582293943169114,-1,-2,-2,-2,0,-2,-1,1
1582293943169114,1,-1,-1,0,-1,-1,0,-1
1582293943177131,0,-1,-1,-1,0,-2,-2,-1
1582293943177131,-1,-1,-2,-1,-2,-2,0,-1
1582293943193087,-1,-1,-2,-2,-2,-1,-1,-1
1582293943193087,-2,-1,-1,-2,-1,-2,-2,-1
1582293943193891,0,3,0,0,1,0,-1,0
1582293943193891,0,-3,-4,-1,-1,-2,0,-1
1582293943215833,-1,-1,-1,-2,-1,0,-2,-2
1582293943215833,1,-1,-1,-1,-1,-1,-1,0
1582293943215833,-2,-2,-1,-1,-1,-1,-2,-1
1582293943215833,-2,-1,0,-1,-2,-2,-1,-3
1582293943229373,0,-1,-1,-1,-1,-4,-3,-2
1582293943229373,-1,-1,-2,-1,-1,-2,-1,-1
1582293943237834,-2,0,0,1,-1,0,-3,-2
1582293943237834,0,-1,-2,-3,-2,-1,-1,0
1582293943252964,1,-1,0,0,-2,1,2,1
1582293943252964,0,0,-1,3,-3,-2,-1,-1
1582293943253797,0,-4,-2,-1,-1,-3,-1,0
1582293943253797,-1,0,0,-1,-1,-4,-2,1
1582293943275718,-3,-1,-1,-2,0,-1,-2,-1
1582293943275718,-2,0,-1,-1,-1,-2,-3,-2
1582293943275718,0,0,0,-2,-1,1,0,-2
1582293943275718,0,-2,-2,1,-1,0,-1,-2
1582293943289419,0,0,0,-1,-2,-2,-3,-4
1582293943289419,-1,-2,-1,0,-1,-1,-2,-1
1582293943297619,0,-1,0,-3,-3,-3,-2,-1
1582293943297619,1,0,0,-1,1,1,1,1
1582293943312880,-1,-1,0,1,-1,-1,0,-1
1582293943312880,0,-1,-1,-1,0,0,0,0
1582293943313576,-1,-1,-1,-1,0,0,0,-2
1582293943313576,-1,-2,-2,-1,-1,-1,-1,-3
1582293943335942,-2,-1,-2,0,1,1,0,0
1582293943335942,0,-1,-1,-2,-2,1,1,0
1582293943336509,-1,-1,-2,-2,0,0,-2,-1
1582293943336509,1,0,0,-1,0,-1,1,0
1582293943349474,-1,0,-1,-2,-1,-1,-2,-3
1582293943349474,1,0,-1,0,-1,-2,1,-1
1582293943357814,-2,-1,-1,-2,-3,-2,-1,1
1582293943357814,0,0,-2,0,0,2,0,-1
1582293943372418,0,0,-1,-2,-1,0,-1,-1
1582293943372418,1,-1,0,-1,0,0,-2,0
1582293943373576,0,-2,-3,1,-1,-2,-3,-1
1582293943373576,-1,0,2,-1,-2,-1,-1,0
1582293943395398,-1,-1,0,-1,1,-2,-2,0
1582293943395398,-1,-1,0,0,1,-1,-1,0
1582293943396349,0,0,-2,-1,-2,0,0,0
1582293943396349,-2,-1,0,-1,1,-1,-2,-1
1582293943409366,1,-2,0,0,-1,-1,0,-2
1582293943409366,-2,0,-2,0,-1,0,-1,0
1582293943417439,-1,-1,1,-2,0,-1,-1,0
1582293943417439,0,-1,-1,0,-1,-1,1,0
1582293943433375,-2,-1,-2,-3,-2,-1,-2,1
1582293943433375,-1,-2,-2,-1,1,0,-1,-1
1582293943434250,-1,-2,0,-1,-1,-1,0,1
1582293943434250,0,-2,0,0,-2,0,-1,-1
1582293943455394,-2,-1,-2,-1,-3,1,-1,0
1582293943455394,-1,-1,-2,-1,0,1,0,0
1582293943461390,-1,-1,-2,0,-1,-1,0,-1
1582293943461390,-2,-2,0,-1,0,0,-2,-4
1582293943469361,0,1,1,2,0,-2,-1,0
1582293943469361,-2,-1,-2,-1,-2,-2,-3,-3
1582293943478188,0,0,2,-2,1,0,3,1
1582293943478188,-2,0,-3,-1,-1,-1,0,0
1582293943493465,-2,-2,-2,1,0,-1,-1,-1
1582293943493465,0,-1,0,-1,-1,-1,-1,-1
1582293943494091,1,0,-1,-1,-1,0,1,-2
1582293943494091,-1,0,-2,-2,-2,-1,-2,1
1582293943515272,0,1,-1,-3,-2,-3,-2,0
1582293943515272,0,-2,-3,-1,-2,-1,0,-1
1582293943517038,0,1,-1,-1,-2,0,-3,-1
1582293943517038,-1,-1,0,-2,0,0,-1,0
1582293943537979,0,-2,-2,-1,-1,0,-1,-1
1582293943537979,-1,1,0,-1,-3,-1,-1,-1
1582293943539101,0,-2,-3,0,-2,-3,-2,-1
1582293943539101,1,1,-1,2,1,-1,0,-2
1582293943553334,-2,0,0,-1,-1,-2,-1,-1
1582293943553334,0,-2,-1,-2,-2,0,0,-2
1582293943554931,-1,-2,0,0,-1,0,-2,-2
1582293943554931,-2,-2,0,-1,-4,-1,-1,-2
1582293943575084,0,-1,1,-2,-1,0,0,-1
1582293943575084,1,0,-2,-2,0,1,3,0
1582293943576868,-3,-1,-1,0,1,0,-1,-1
1582293943576868,-3,-1,-2,-1,-1,-1,-3,0
1582293943598353,0,0,0,1,-1,1,1,-2
1582293943598353,-1,-1,0,1,-3,-2,-3,-1
1582293943599844,-2,-3,-1,-1,-1,-1,-2,-2
1582293943599844,-1,-2,0,0,-1,-1,-1,-1
1582293943611838,-1,-1,-2,-2,-1,-2,-3,-2
1582293943611838,-1,-1,1,-1,-1,-2,-5,0
1582293943618952,0,-1,-1,-2,-1,2,10,2
1582293943618952,1,-1,-1,-2,-2,-1,0,0
1582293943635905,-1,-2,-3,-2,-2,-1,-5,-2
1582293943635905,-1,0,-2,-1,1,-2,2,-1
1582293943636713,-2,0,-1,0,-3,-1,-6,-1
1582293943636713,0,0,-1,0,-2,-1,0,-1
1582293943657835,-2,-1,-3,-1,-2,1,0,2
1582293943657835,-2,-1,-1,1,-1,-3,-6,-3
1582293943659873,-1,-1,0,-1,-1,-1,-7,-3
1582293943659873,-1,-2,0,-2,0,1,8,-1
1582293943672673,0,-4,-2,1,-2,-2,-8,-3
1582293943672673,-1,0,0,-1,-1,0,1,-2
1582293943674617,6,6,1,-1,0,-1,-4,1
1582293943674617,0,-1,0,-1,-1,-2,-7,-1
1582293943695770,-10,-11,0,0,2,6,17,-1
1582293943695770,-1,1,-1,-3,-1,2,1,1
1582293943697005,-2,-3,-1,0,1,0,3,0
1582293943697005,3,5,-1,-1,1,-2,-6,0
1582293943718510,0,2,0,1,-2,-2,-4,0
1582293943718510,-3,-4,-1,-1,1,-1,-6,-5
1582293943719754,-1,1,0,-1,-1,-1,-1,-1
1582293943719754,-2,-3,-2,-1,-3,1,2,-1
1582293943732506,0,0,0,0,-3,-2,-2,-1
1582293943732506,0,-1,-2,0,-1,-1,-1,1
1582293943739433,0,-1,-3,-2,-2,-3,-4,-3
1582293943739433,-2,-3,-1,1,1,1,1,0
1582293943755678,0,-2,-2,0,1,-3,0,0
1582293943755678,1,0,-1,-2,-2,-2,-6,-2
1582293943756855,-3,-3,-2,0,-2,0,2,-1
1582293943756855,-1,-1,0,-2,-1,0,0,-1
1582293943778358,2,4,2,0,-1,-1,-2,2
1582293943778358,-2,-1,-1,0,0,0,-5,-5
1582293943779491,-3,-2,0,0,-1,0,2,0
1582293943779491,-3,-2,-5,-1,-1,-1,-7,-1
1582293943792348,0,-1,-1,-3,-3,-3,-4,-4
1582293943792348,-2,-1,-1,-2,-1,-1,1,1
1582293943799334,0,-1,-3,-2,-2,-3,-4,-2
1582293943799334,0,1,1,-1,-2,-1,2,0
1582293943815437,0,-1,-2,-3,0,-1,-2,0
1582293943815437,1,-3,-3,-1,-2,-1,4,2
1582293943817223,1,1,1,-1,1,-2,0,-2
1582293943817223,0,-3,0,1,0,-1,-1,-1
1582293943838177,0,1,-2,1,0,3,6,0
1582293943838177,1,0,-1,0,-3,-1,-3,-1
1582293943839590,-1,0,-1,0,-1,0,1,2
1582293943839590,1,-1,-1,0,-2,-4,-3,-1
1582293943852626,-4,-4,-2,-2,-3,-3,-4,-1
1582293943852626,-1,0,-1,-1,-2,2,3,0
1582293943859161,-2,-2,-1,-4,-2,-2,-2,-1
1582293943859161,-2,-2,-1,-2,-1,-1,1,-1
1582293943875258,0,1,0,1,-1,0,-1,-2
1582293943875258,0,-1,-1,0,0,0,2,0
1582293943877068,-1,-2,0,0,-2,-1,-3,-2
1582293943877068,-2,-1,-3,-2,-1,-1,3,0
1582293943905190,-1,0,-3,-2,-1,-2,-4,-4
1582293943905190,1,-1,0,0,0,-1,4,1
1582293943906983,-1,-1,-1,-1,-1,2,3,0
1582293943906983,-1,-1,0,-1,2,-1,-9,-4
1582293943911972,0,-2,0,-2,-2,-3,-5,-1
1582293943911972,-2,-2,-1,-1,-1,0,1,-2
1582293943919156,-2,-1,-3,-2,0,-2,-1,-1
1582293943919156,-1,-1,0,-2,-1,-2,1,-2
1582293943934124,-1,0,-2,-1,-2,1,-1,0
1582293943934124,0,-1,-2,-2,0,-1,0,-1
1582293943942892,-1,-1,-1,-1,-1,-2,0,0
1582293943942892,0,-3,-5,0,0,0,2,-2
1582293943958087,-1,-2,-1,-2,0,0,-3,-2
1582293943958087,-2,-1,0,-1,0,-2,0,-2
1582293943959842,-1,-1,0,-1,-1,-2,-8,-1
1582293943959842,-1,1,1,-1,-3,3,11,2
1582293943972107,3,2,-1,-1,-1,-1,-1,0
1582293943972107,-9,-6,-2,-1,-1,-1,-2,-1
1582293943978846,0,-4,-3,-2,-1,-1,1,0
1582293943978846,-2,-1,1,6,0,1,-2,-1
1582293943995745,0,3,0,0,0,-2,1,0
1582293943995745,0,-1,1,-1,0,-3,-2,-2
1582293943996744,-3,-2,0,-1,-1,0,-2,-1
1582293943996744,0,0,-2,-2,-1,1,-4,0
1582293944017743,-4,-4,0,-1,-1,0,0,0
1582293944017743,0,2,-1,1,-2,0,-2,-1
1582293944019730,0,-1,-1,1,0,1,1,0
1582293944019730,2,-1,-1,-4,-1,-2,0,-1
1582293944031862,-1,-2,0,-1,0,2,-1,-1
1582293944031862,1,-1,0,-3,-2,0,1,0
1582293944040626,2,2,0,0,-2,-1,-1,-1
1582293944040626,-5,-5,-2,-3,0,1,-3,-2
1582293944055744,-1,-2,-2,-2,0,-2,0,0
1582293944055744,1,2,-2,-1,-2,-2,0,1
1582293944061813,-1,0,-2,0,0,-1,1,-1
1582293944061813,1,-1,1,-2,-1,-3,-2,-1
1582293944077758,-2,-3,-2,-1,-2,0,-1,-1
1582293944077758,0,0,-2,-1,0,0,0,0
1582293944079523,-3,-1,-1,0,-1,-1,1,1
1582293944079523,-1,-1,-2,-2,-1,1,-1,2
1582293944091638,-2,0,-1,-1,0,-2,0,-1
1582293944091638,-3,0,0,0,-1,-2,-4,-1
1582293944100473,-2,-2,-1,-2,-1,-2,-1,-1
1582293944100473,-1,0,-2,0,0,-2,-1,0
1582293944115440,0,-1,-1,-1,-2,0,0,0
1582293944115440,0,-2,-1,0,-1,-1,-1,-2
1582293944116422,-1,-2,0,-1,0,-1,-2,-3
1582293944116422,-1,0,-2,-1,-1,-1,-2,-1
1582293944137411,-2,0,1,1,1,-3,-2,-1
1582293944137411,0,-2,-1,0,-1,-2,0,-1
1582293944139375,0,0,0,0,-2,0,0,1
1582293944139375,-1,-2,-1,0,-1,-1,0,-1
1582293944151619,1,-1,-2,0,-1,-1,0,-1
1582293944151619,0,1,-1,-3,-1,1,0,0
1582293944168359,-1,-2,0,-1,0,-2,1,-1
1582293944168359,-1,-1,1,-1,-3,0,-2,-1
1582293944175273,-1,0,-2,0,1,1,0,2
1582293944175273,0,-1,-1,0,0,0,0,-1
1582293944177260,-2,-3,-1,-1,0,0,-1,-2
1582293944177260,-1,-1,-1,1,-1,-1,0,-2
1582293944198204,-1,-1,-1,-1,-3,-2,-2,-3
1582293944198204,0,-2,-2,0,1,0,-1,-1
1582293944199200,-1,-1,0,-1,0,0,-1,-2
1582293944199200,-1,-2,0,0,-1,0,0,0
1582293944220359,0,1,1,-2,-1,-1,-1,-2
1582293944220359,3,-1,-1,1,-1,-2,0,1
1582293944222143,-6,-3,-2,-1,-2,1,-1,0
1582293944222143,-3,-3,-1,-2,-1,-2,-1,0
1582293944235206,-3,1,0,-2,-2,-2,-1,-3
1582293944235206,-1,0,-2,0,-1,0,0,-1
1582293944237239,3,0,-2,0,-1,-1,0,-1
1582293944237239,0,0,-1,0,0,0,-1,0
1582293944258044,-1,-2,-2,0,0,0,0,1
1582293944258044,-2,0,-1,-2,-1,0,0,-1
1582293944259245,1,-1,0,-2,0,0,-1,-1
1582293944259245,-4,-2,-1,-2,-2,-1,-1,-3
1582293944271065,-1,-1,-1,1,-1,-1,-2,-1
1582293944271065,-2,-2,-1,-2,-1,-3,-3,0
1582293944280040,-1,-1,-1,-1,-1,1,0,-1
1582293944280040,0,-1,0,-1,2,0,0,-2
1582293944295182,-1,0,-1,-2,-2,-1,0,0
1582293944295182,-2,0,-2,-1,-2,1,-3,-1
1582293944296954,-2,-2,1,0,0,-1,-3,-1
1582293944296954,-1,-1,-2,-1,-1,-3,-1,1
1582293944317924,-1,-2,-1,-1,-1,0,0,0
1582293944317924,-2,0,-2,-1,-1,1,-1,-2
1582293944319344,-2,1,-3,-1,-2,-2,-1,-1
1582293944319344,-1,-1,1,1,-3,0,-1,0
1582293944331903,-2,-2,-3,0,-1,-2,-1,1
1582293944331903,-1,-3,1,-1,-2,-2,0,1
1582293944340618,0,-1,-1,-2,0,0,0,-2
1582293944340618,1,1,0,-1,0,-2,-2,1
1582293944354920,-3,-2,-3,-1,0,0,-2,-5
1582293944354920,-2,1,-3,-1,-1,-3,0,1
1582293944356777,0,1,-1,-1,0,1,10,4
1582293944356777,-3,-2,-1,-2,-1,-5,-28,-12
1582293944377723,-2,-3,0,-1,-1,1,11,5
1582293944377723,-1,0,-1,-1,-2,-3,-11,-4
1582293944379760,1,0,0,1,-1,-2,0,1
1582293944379760,0,0,0,-1,1,0,5,3
1582293944391923,1,-1,-1,-2,-1,-3,-7,-1
1582293944391923,-2,0,-2,-1,1,0,3,1
1582293944400661,2,0,-2,-1,-2,-2,-1,1
1582293944400661,2,-1,-1,0,0,1,1,0
1582293944415677,-7,-1,-2,-1,0,-1,-2,-7
1582293944415677,-1,0,-1,0,-3,-1,6,1
1582293944416625,-1,-3,-3,-1,-2,-2,-7,-3
1582293944416625,1,0,-1,0,-2,0,5,0
1582293944437572,4,3,0,-2,-1,-1,-1,0
1582293944437572,1,-3,-1,-2,0,0,-3,-1
1582293944439562,-5,1,6,1,1,0,-3,-2
1582293944439562,-3,0,-3,-3,-1,0,6,2
1582293944460579,-2,-3,-4,-2,-1,-2,-2,-2
1582293944460579,0,9,10,2,0,-1,-3,-2
1582293944461500,1,-2,-4,-2,0,-1,-3,-1
1582293944461500,-3,-3,1,-1,-2,-4,4,-2
1582293944475564,-1,0,-2,0,-1,-1,-1,2
1582293944475564,-1,-5,-4,-2,-1,-1,-6,-4
1582293944476505,-2,-1,-3,-1,-1,0,8,-2
1582293944476505,0,0,0,1,0,-1,-1,-1
1582293944497607,0,-2,-2,-2,-2,-2,-4,-1
1582293944497607,-1,-1,-2,-1,0,1,4,1
1582293944499472,0,2,0,-1,0,-3,-4,-1
1582293944499472,-1,-1,-4,-1,0,-1,0,0
1582293944520386,0,0,0,1,1,-2,1,1
1582293944520386,-3,-4,-2,1,-2,0,0,-1
1582293944521940,0,-2,-3,0,0,-1,-3,-2
1582293944521940,-2,0,-3,-2,0,1,0,0
1582293944535356,0,0,3,-1,-1,-1,-3,0
1582293944535356,-1,0,-2,-1,0,-2,1,-1
1582293944537297,-1,-5,-2,-2,-1,-5,-5,-2
1582293944537297,-2,0,1,0,0,0,-1,0
1582293944558251,1,1,1,0,1,0,-1,0
1582293944558251,-1,-2,-3,-1,-1,0,-2,-1
1582293944559248,1,-1,-2,-1,-2,-2,0,1
1582293944559248,-1,0,0,-1,-2,-4,-2,-1
1582293944580248,-2,-2,-1,0,-1,0,0,-1
1582293944580248,0,-2,-3,0,-1,-2,0,1
1582293944582231,-1,0,0,-1,-2,1,-2,0
1582293944582231,-1,0,-1,-1,-1,0,0,1
1582293944595372,1,-1,-2,1,-2,-2,-1,-3
1582293944595372,-2,-1,-1,-2,-1,-2,0,-2
1582293944597137,3,1,-2,1,-1,1,-2,-1
1582293944597137,-5,-3,-4,-2,-2,-1,-1,-4
1582293944618194,-1,0,-1,-1,-1,1,0,0
1582293944618194,-5,-1,-1,-2,1,-3,-2,-6
1582293944619078,0,2,2,-1,0,-2,0,1
1582293944619078,3,-1,-2,1,0,-1,0,-1
1582293944640372,2,1,0,-2,0,-1,-2,0
1582293944640372,0,0,-1,-3,-2,-1,1,1
1582293944642021,-2,-1,-2,-1,-2,-5,-2,-2
1582293944642021,0,-1,0,-1,-1,-1,-2,-1
1582293944655159,-2,-3,-1,-2,-1,-2,-2,-2
1582293944655159,0,-1,-1,0,0,1,-2,0
1582293944661024,-3,-1,0,-3,-4,-2,-2,-1
1582293944661024,0,-1,-1,0,-2,1,-1,-1
1582293944677927,-2,-2,-1,0,-3,-1,-1,-2
1582293944677927,-1,-3,-1,-1,-1,-1,0,0
1582293944679342,0,-1,0,0,0,1,0,0
1582293944679342,-1,-2,-2,-2,1,0,-1,-1
1582293944699906,-2,0,0,-1,-2,0,-1,0
1582293944699906,0,0,-2,-1,-1,-3,-2,0
1582293944701856,-5,-5,-2,0,0,1,0,-3
1582293944701856,0,0,0,-2,-2,-2,-1,0
1582293944714872,0,1,0,1,1,1,-2,0
1582293944714872,0,-1,-1,-1,-2,-2,-1,0
1582293944720969,0,-2,-1,-1,-1,1,0,-2
1582293944720969,-2,-2,1,-2,-1,-1,-1,-3
1582293944737925,-1,0,-1,-2,0,-2,-2,-1
1582293944737925,-2,-2,-1,0,1,-2,0,0
1582293944738759,-1,0,-2,-1,1,-1,0,1
1582293944738759,1,0,0,-2,-2,1,-2,1
1582293944760698,3,0,0,1,-2,-1,-1,0
1582293944760698,-7,-4,0,0,0,-2,-2,-3
1582293944761718,1,1,0,0,-2,-1,-1,0
1582293944761718,0,-3,0,-1,1,0,1,0
1582293944774722,-9,-4,-2,-3,0,-3,-1,-8
1582293944774722,2,0,0,-1,0,0,-1,1
1582293944781648,-3,-3,-1,-2,-1,-1,0,-1
1582293944781648,2,2,-2,-1,-2,-1,-1,-1
1582293944797937,2,1,-2,-1,-1,1,1,2
1582293944797937,-1,1,1,0,-2,0,0,-1
1582293944799848,-2,-1,-1,0,-1,0,-1,-1
1582293944799848,0,-1,0,1,-1,-1,-1,-1
1582293944820593,-2,-2,-1,-2,0,0,-2,-1
1582293944820593,-3,-1,-1,-2,-1,0,-1,0
1582293944821714,0,-1,-3,-1,0,-3,-2,-1
1582293944821714,-2,1,0,0,0,-1,-3,-1
1582293944834502,-1,-1,-1,0,-1,0,-1,-1
1582293944834502,3,1,-1,1,-2,0,-2,1
1582293944841525,-1,-1,1,-1,-1,0,-1,0
1582293944841525,-2,-2,-1,0,-1,-1,1,-1
1582293944857481,-1,0,-2,-1,-2,-2,-1,-1
1582293944857481,2,2,-1,-1,-1,-1,-1,0
1582293944859602,-1,-2,-2,0,-1,0,-2,-1
1582293944859602,-1,0,-2,-1,0,1,-3,0
1582293944880432,-1,-1,0,-1,-1,-1,1,1
1582293944880432,-1,-2,1,-1,-1,0,-1,-1
1582293944881619,-3,-3,-1,-2,-1,0,-1,0
1582293944881619,-2,-3,-1,0,-1,-1,0,-3
1582293944893391,-2,-1,-3,1,0,-1,-2,0
1582293944893391,1,-2,-1,-1,-1,-2,-1,-3
1582293944902372,-1,0,-1,0,-1,0,0,-1
1582293944902372,0,-1,0,0,-2,-3,0,0
1582293944917440,2,0,-1,-2,0,-1,-1,1
1582293944917440,0,-2,-2,-1,-1,0,-2,0
1582293944919352,-7,-3,-1,0,0,-2,-1,-8
1582293944919352,0,-2,-3,-2,-1,0,0,2
1582293944940270,-2,-1,-1,-3,-3,-2,-1,-1
1582293944940270,0,-3,-1,-2,0,0,-1,-1
1582293944942212,0,-2,0,-1,-1,-1,-1,1
1582293944942212,-2,-1,0,-1,0,0,-1,-3
1582293944954184,0,0,-2,-1,-1,-2,-1,-2
1582293944954184,-1,-2,2,-1,0,0,-1,0
1582293944963214,1,0,-1,-1,-1,-1,0,-2
1582293944963214,-2,-3,-2,0,-1,-1,1,-1
1582293944978260,0,0,2,-1,1,0,0,0
1582293944978260,-2,0,-1,-1,-1,-2,0,-2
1582293944979217,-1,0,-1,-1,-1,-1,1,0
1582293944979217,0,0,-1,0,1,0,-2,-1
1582293945000266,1,1,0,-2,-1,-2,0,1
1582293945000266,1,-3,-2,-2,-2,-1,0,-1
1582293945002053,-10,-4,-1,-2,-1,-2,-1,-7
1582293945002053,0,-1,-1,0,-1,-2,-1,1
1582293945014328,-2,-1,-1,-1,-2,0,1,-3
1582293945014328,-1,1,-2,-1,-2,-1,0,-1
1582293945023160,1,-1,0,-1,0,0,0,1
1582293945023160,0,0,2,-2,-2,-1,-1,-2
1582293945038155,0,-1,-2,1,0,-1,-2,-2
1582293945038155,1,1,-1,-1,-2,1,0,1
1582293945039069,1,1,-1,-2,-2,-3,0,-1
1582293945039069,-4,-1,-2,-2,-1,-2,0,0
1582293945060381,3,-2,0,-1,-1,0,-1,1
1582293945060381,-2,-1,-1,-1,0,-3,-1,0
1582293945061952,-1,-3,-2,0,-2,1,-1,1
1582293945061952,0,-1,2,0,-2,0,-1,-1
1582293945074067,-2,-1,-2,1,-1,-1,-1,-2
1582293945074067,-2,-1,-1,0,-1,-1,-1,0
1582293945082955,2,-1,-1,-1,0,-2,-1,0
1582293945082955,2,1,-2,-2,-1,0,-1,0
1582293945097843,-2,-2,-2,-1,-1,1,-2,0
1582293945097843,-9,-4,-2,0,1,1,-2,-6
1582293945099863,3,1,0,-1,-1,-3,0,1
1582293945099863,-1,-1,0,-1,-1,0,0,-2
1582293945120799,-2,1,0,-1,0,-2,-1,-1
1582293945120799,0,2,-1,-1,-1,0,-1,1
1582293945121751,-2,-2,-2,-1,0,1,-1,0
1582293945121751,-1,-3,-1,0,-1,-3,-1,0
1582293945133862,0,-2,-3,-2,-2,0,1,0
1582293945133862,-1,-1,-1,-1,0,-1,-1,-1
1582293945142681,-2,-2,-2,-1,-1,0,-1,0
1582293945142681,-1,-1,-2,-1,-2,-2,-1,0
1582293945157889,0,0,0,0,-1,0,-1,-2
1582293945157889,0,-1,-1,-1,-1,-1,-1,-1
1582293945159824,1,-1,-1,-1,-4,-2,1,0
1582293945159824,-1,0,-1,0,0,0,0,-1
1582293945180791,-2,-1,-1,0,-2,0,2,0
1582293945180791,1,0,-2,0,-1,-1,0,0
1582293945181956,-1,1,-2,-1,0,1,-1,-1
1582293945181956,-1,-1,-3,-2,0,-1,-1,0
1582293945194012,0,0,0,-1,1,-2,-2,0
1582293945194012,4,0,0,0,0,-1,0,1
1582293945202566,-1,-1,1,-1,0,-1,-3,1
1582293945202566,-9,-4,-3,-1,-3,-1,-4,-7
1582293945218027,1,-1,-1,-1,-1,1,1,0
1582293945218027,-1,0,1,-2,-1,-1,-1,-1
1582293945219473,2,-1,0,-1,-1,-1,-1,0
1582293945219473,1,-1,-1,-1,0,-1,0,-1
1582293945240620,-2,-4,-2,-1,-1,-3,-4,-2
1582293945240620,1,-1,-3,0,-1,-1,0,-1
1582293945241944,-2,-1,-2,0,-1,-1,0,-2
1582293945241944,1,-2,0,-2,-1,0,0,-2
1582293945254389,1,0,-1,-1,-3,-1,-1,-1
1582293945254389,-2,-2,-2,-1,0,-3,0,1
1582293945263356,-2,-1,-1,-1,-1,-2,-1,-1
1582293945263356,-1,-2,0,-1,-3,-1,-1,0
1582293945278317,0,0,-1,-1,0,1,-1,0
1582293945278317,-3,-3,-1,-1,-3,-2,-1,-2
1582293945279314,-2,0,-2,0,0,-1,-3,-1
1582293945279314,-1,-1,-1,-1,-1,-1,-3,0
1582293945300462,0,-1,-2,-1,-1,-1,-3,1
1582293945300462,-2,-1,1,-1,0,0,-1,0
1582293945302254,-2,-1,1,0,-1,1,0,0
1582293945302254,0,1,0,1,0,-1,-1,0
1582293945314263,-3,-1,-2,-3,-1,-3,-2,-3
1582293945314263,-1,-2,-2,-2,-2,0,-3,-2
1582293945323234,0,-2,0,1,-1,-1,-1,0
1582293945323234,-1,0,0,-2,0,1,-2,0
1582293945338168,-1,-2,-1,-1,-2,0,-2,-2
1582293945338168,0,1,-1,-2,-2,-1,-1,-1
1582293945339150,-1,-1,-2,0,-2,0,-1,-1
1582293945339150,-8,-3,-2,-2,0,-2,-1,-2
1582293945360096,1,0,-1,0,-1,-1,0,0
1582293945360096,0,-2,1,0,-2,-1,-1,-1
1582293945362091,0,0,-1,-2,-1,-1,-2,-1
1582293945362091,2,0,-1,-1,1,-2,-1,0
1582293945374227,-3,-3,-2,-1,0,0,0,-1
1582293945374227,-2,-2,-1,-1,1,-2,2,-1
1582293945383317,0,1,0,1,0,-2,0,-1
1582293945383317,1,-1,-2,-1,0,1,1,0
1582293945397062,-2,0,0,-1,-3,-2,-3,-1
1582293945397062,-1,-2,-2,-1,-1,0,-2,-2
1582293945411957,-3,-3,-3,-2,-1,-1,-2,-3
1582293945411957,2,-1,-3,1,-2,-1,-1,1
1582293945420945,-1,0,-1,-1,0,-1,-1,-1
1582293945420945,-1,0,-1,-1,-1,0,0,-1
1582293945421942,-2,-1,-1,-2,-1,-1,-1,-1
1582293945421942,-1,0,0,-2,-1,-4,-2,-2
1582293945443259,5,1,0,0,0,1,0,0
1582293945443259,-5,-3,-3,0,-2,-1,-1,1
1582293945444874,-2,-1,-1,-1,0,-1,1,-1
1582293945444874,0,-2,0,-1,-2,-1,-1,1
1582293945458033,-1,-1,-1,-1,0,-1,0,-2
1582293945458033,1,-1,-1,-1,-1,-2,0,0
1582293945459829,1,1,0,-1,1,-2,-1,-1
1582293945459829,-2,-1,-3,0,-2,0,-1,-3
1582293945480834,-1,0,-2,0,0,0,1,0
1582293945480834,-1,1,-2,1,0,1,-2,-2
1582293945481776,-2,-2,-3,-1,-1,-1,0,0
1582293945481776,-1,0,-3,-2,-1,0,0,-4
1582293945503206,0,-2,-1,0,0,-1,-1,-2
1582293945503206,-1,-1,1,-1,-3,-1,-2,-1
1582293945504717,2,-2,-1,-2,-1,0,-2,0
1582293945504717,1,-1,0,-1,-3,-2,-1,-1
1582293945516881,-3,-2,-3,-3,-1,-1,0,1
1582293945516881,0,0,1,0,0,-1,-1,-1
1582293945532934,0,0,-2,0,-1,-1,0,-1
1582293945532934,2,1,-1,0,-1,-1,0,2
1582293945540611,-3,-1,-1,-1,-2,1,-1,0
1582293945540611,-7,-3,-1,-1,-3,-2,-2,-6
1582293945541608,1,-1,-2,0,-2,1,0,0
1582293945541608,-1,0,-3,-1,-1,0,0,0
1582293945562562,1,0,1,-1,0,-3,0,-1
1582293945562562,-1,0,-1,-1,-1,-1,0,1
1582293945564554,-2,-1,-1,1,-1,0,-2,-2
1582293945564554,-1,1,-1,-2,-2,0,-3,0
1582293945577563,-1,-2,-1,-2,-1,2,0,-1
1582293945577563,0,-2,-1,-1,-2,-2,-1,1
1582293945584545,-3,-1,0,-2,-1,-3,0,-2
1582293945584545,-2,-3,1,0,0,-2,-1,0
1582293945601580,-3,-1,0,1,0,-2,-1,-1
1582293945601580,1,-1,-3,-1,0,1,-1,0
1582293945602948,3,-1,1,0,-2,-2,-1,0
1582293945602948,0,-1,-1,-1,0,-1,-1,-4
1582293945622454,-2,-2,-1,-1,-2,-3,-2,-2
1582293945622454,2,0,0,-1,-3,-1,1,2
1582293945624388,3,0,0,2,0,-1,0,1
1582293945624388,-5,-1,-3,0,-2,-1,-2,0
1582293945637568,-2,-2,-2,-1,-2,-3,-2,-6
1582293945637568,2,-1,0,-2,1,0,1,0
1582293945644349,-3,-3,-1,-2,-2,0,-1,-2
1582293945644349,2,-1,0,0,-1,0,-1,1
1582293945660427,1,2,-3,-2,-1,0,-1,1
1582293945660427,-3,-2,0,-1,-1,-1,-2,-1
1582293945662292,-1,-1,0,-1,1,0,-1,-1
1582293945662292,-1,-1,-1,-1,-1,-1,-1,-3
1582293945683229,-2,-1,0,0,-1,0,0,1
1582293945683229,-3,-2,-3,1,-1,0,0,-1
1582293945684229,-2,-1,-2,-1,-2,0,-1,-1
1582293945684229,-2,-1,-1,-1,-2,0,0,-2
1582293945697425,-1,-3,1,1,-1,-1,1,-1
1582293945697425,1,-1,0,-1,1,0,0,0
1582293945704334,0,-2,0,-1,0,-1,0,-1
1582293945704334,0,-1,-1,-1,-2,-2,-1,-1
1582293945720725,0,0,0,-1,-1,-1,-1,0
1582293945720725,-1,-1,-1,-1,0,0,0,-2
1582293945722136,-1,0,0,-2,0,-1,1,0
1582293945722136,1,-2,0,-2,-1,-1,0,-1
1582293945743258,1,-1,-2,1,-1,-1,0,-1
1582293945743258,-11,-4,-3,0,-3,-1,-1,-7
1582293945744599,1,2,-1,0,-2,0,-1,1
1582293945744599,0,-2,-2,-2,-1,-1,-2,-1
1582293945757480,1,1,-1,0,-1,-2,-2,0
1582293945757480,1,2,-1,-3,0,0,0,2
1582293945765029,-2,-2,1,-1,-2,-2,0,0
1582293945765029,-2,-1,-2,0,-1,-3,-2,-1
1582293945780124,-2,-2,-1,-2,0,-1,0,-2
1582293945780124,1,0,-3,1,-1,0,-1,1
1582293945781973,-2,-2,-2,-2,-1,2,0,-1
1582293945781973,2,1,1,0,-2,0,1,1
1582293945803080,-2,-3,-1,-2,0,-2,-1,-3
1582293945803080,0,0,-1,-2,-2,-2,-2,-1
1582293945804906,-1,0,-2,-1,-3,-1,-3,1
1582293945804906,-4,-1,1,-1,-1,-1,-1,-3
1582293945817385,-1,0,0,-2,0,0,0,-1
1582293945817385,0,-1,0,-1,-1,-2,0,-1
1582293945823898,0,-1,-2,-1,1,-1,-3,-2
1582293945823898,-2,-2,-5,0,0,0,0,-2
1582293945840850,-1,-1,0,0,-2,-2,-1,0
1582293945840850,0,-1,1,-1,1,-2,-2,-1
1582293945841953,-1,1,-2,-2,-1,-1,-1,-1
1582293945841953,-1,0,-1,0,0,-1,0,0
1582293945862754,0,-3,0,-2,-2,0,0,-1
1582293945862754,-10,-4,-2,0,-1,-3,-2,-4
1582293945864797,2,1,1,0,-1,-1,0,2
1582293945864797,-3,1,-3,-2,-2,-1,-1,-2
1582293945876921,0,-1,-1,-1,-1,-1,-3,2
1582293945876921,0,-1,0,0,0,2,-1,0
1582293945883890,-3,-3,-3,-2,-3,-2,-2,-2
1582293945883890,1,-1,-2,1,0,-1,0,-3
1582293945900855,-1,1,-2,0,-1,-1,0,0
1582293945900855,1,0,0,0,0,-1,0,1
1582293945902317,-1,0,0,0,0,-1,0,-2
1582293945902317,0,-1,-1,-1,-2,0,-3,0
1582293945922654,-2,0,0,-1,-2,-1,0,-2
1582293945922654,0,-1,1,-1,-1,-3,-1,0
1582293945924585,-1,-3,-2,-2,-2,-1,-1,-1
1582293945924585,1,-2,0,-2,2,0,0,-1
1582293945936783,-1,0,-2,1,-1,-1,0,-1
1582293945936783,-1,-1,-1,-2,-2,0,-3,-2
1582293945945574,0,0,0,0,-2,0,-1,0
1582293945945574,1,-3,0,-2,-2,-1,1,0
1582293945959727,-8,-1,-1,-1,0,0,-3,-7
1582293945959727,1,0,-3,-3,-1,-1,-1,1
1582293945967660,0,0,-1,-1,-1,-2,-1,-1
1582293945967660,0,1,2,1,-1,-1,-1,-1
1582293945982581,1,0,-1,-1,-1,-2,0,1
1582293945982581,-2,-1,1,-2,-1,1,-1,0
1582293945984425,-4,-2,-1,0,-1,-1,0,-1
1582293945984425,-2,-2,-2,-2,-2,-1,-1,-1
1582293945996528,2,1,0,0,-1,-1,-3,0
1582293945996528,-1,0,-2,0,-1,-2,-1,-1
1582293946011576,-1,-2,-1,-1,-1,-1,-1,-1
1582293946011576,0,-1,1,0,0,-1,-1,0
1582293946020848,-1,-2,0,0,0,1,-1,0
1582293946020848,2,0,-2,0,-1,1,1,0
1582293946022324,0,0,0,-1,-1,0,-1,0
1582293946022324,-3,-1,-1,0,-1,-1,-4,-2
1582293946043496,2,1,0,0,0,-1,-2,2
1582293946043496,-1,-3,0,-2,-1,-2,-1,2
1582293946044267,-4,-3,1,-1,-1,-1,-2,-6
1582293946044267,-1,-2,-1,-1,0,-3,0,-1
1582293946056537,-2,0,-1,-3,-2,1,1,0
1582293946056537,2,0,0,1,-2,-1,-1,3
1582293946065268,2,0,-1,1,-2,0,-1,0
1582293946065268,-2,-2,-2,-1,-2,-2,-1,-1
1582293946080399,-1,-1,-1,-1,-1,2,1,-1
1582293946080399,-2,-2,0,0,1,1,-1,-1
1582293946082167,-2,-1,-1,1,-1,0,1,0
1582293946082167,1,-2,1,0,-1,0,0,-1
1582293946102329,-2,-3,-3,-1,0,-4,-1,0
1582293946102329,-3,-2,0,0,-2,-1,-2,-3
1582293946110251,0,1,-2,-3,0,1,-2,-1
1582293946110251,1,2,-1,-1,-1,-1,-2,0
1582293946116267,-1,-2,-2,-1,-1,0,0,-1
1582293946116267,0,-1,-1,-1,-1,-1,-1,-1
1582293946125204,-2,0,-1,-1,0,-3,1,0
1582293946125204,-1,-1,-2,-1,-1,-2,-1,0
1582293946140383,2,0,-1,-2,-2,-1,0,-1
1582293946140383,1,1,-2,-1,-1,-1,-2,-1
1582293946142004,-5,-2,-2,-1,-1,-2,-1,-5
1582293946142004,1,0,-1,-2,0,1,0,-1
1582293946162947,2,1,0,0,-1,0,0,3
1582293946162947,2,-1,-1,-1,-1,-2,2,0
1582293946164002,0,-3,-1,-2,-1,0,-1,-1
1582293946164002,-2,-3,-1,0,-2,-3,-2,-2
1582293946176971,-1,-1,0,0,0,-1,0,-2
1582293946176971,1,-1,-1,0,0,0,-1,-1
1582293946185887,-2,-1,0,-1,1,0,-2,1
1582293946185887,0,-2,-2,-2,-1,-2,-1,-2
1582293946200847,-1,0,-2,-1,0,-1,-3,0
1582293946200847,-1,-1,-1,-1,-3,-1,-1,-3
1582293946201945,1,1,-2,0,-2,-1,0,0
1582293946201945,1,-1,-1,-1,-1,1,-1,0
1582293946223009,-3,-1,-1,-2,-2,-1,0,-1
1582293946223009,-1,-1,-3,-1,-2,0,-1,-1
1582293946224781,0,-2,-1,-2,-1,-2,0,1
1582293946224781,-3,0,0,1,0,-2,0,0
1582293946236942,-1,-1,0,0,1,-1,-2,-1
1582293946236942,-1,-3,0,-2,-1,0,0,1
1582293946245725,2,-3,-2,-1,-1,-1,-2,-2
1582293946245725,0,0,-2,0,-2,0,-4,-1
1582293946260854,3,0,-1,0,-1,-1,0,0
1582293946260854,-2,-1,-1,0,1,0,0,0
1582293946261694,-4,0,-2,-1,0,-1,0,-3
1582293946261694,0,-1,-1,-4,-2,-1,1,-1
1582293946282905,-1,-1,-2,0,-1,1,-1,-1
1582293946282905,1,-1,0,-2,-1,0,0,-1
1582293946284626,-1,0,-1,0,-1,-1,-2,1
1582293946284626,-5,-3,-1,0,-1,0,-2,-3
1582293946296824,0,-1,0,-2,0,0,0,0
1582293946296824,-1,-1,-3,-1,-1,-1,-1,-1
1582293946305565,-1,-2,-1,-2,0,0,0,-1
1582293946305565,1,0,0,1,-2,-2,-1,-2
1582293946320581,-2,-1,0,0,-2,0,-1,-2
1582293946320581,-2,0,-2,-1,1,-1,-1,-3
1582293946321690,0,0,-2,-1,-1,0,0,0
1582293946321690,0,1,-1,-2,0,2,1,0
1582293946342819,-3,-3,-2,-1,-2,-2,-1,-1
1582293946342819,0,1,1,0,-1,0,-2,-3
1582293946344465,-1,0,-1,-1,-1,0,-1,2
1582293946344465,-1,-2,-2,-1,-1,-3,0,0
1582293946365649,-1,-3,2,0,0,-1,-2,-1
1582293946365649,-3,-1,-3,-2,-2,-2,-2,0
1582293946366983,4,0,-1,-1,0,-1,0,1
1582293946366983,-8,-2,2,0,-1,1,0,-1
1582293946387405,0,-1,-1,-1,0,-1,1,-2
1582293946387405,-1,1,0,-1,-2,-1,0,-1
1582293946389342,-1,-1,0,-2,-2,1,-2,0
1582293946389342,2,1,-2,-1,-1,0,1,2
1582293946402887,-1,2,1,-1,-2,-1,-2,-1
1582293946402887,0,1,-1,0,-1,-3,0,1
1582293946404780,0,0,1,-1,0,0,2,1
1582293946404780,-1,1,-2,0,-1,0,-1,-3
1582293946425438,-1,-1,-1,0,-1,0,-1,-1
1582293946425438,-2,0,-1,-1,-1,-2,-1,-1
1582293946427240,-2,-3,-1,0,-1,-1,-3,-2
1582293946427240,1,-1,-1,0,-2,-1,-1,0
1582293946440414,0,-1,-1,0,-2,1,1,-1
1582293946440414,0,-2,-1,-1,0,-1,-1,0
1582293946442214,-1,1,1,-1,-2,-1,-1,-3
1582293946442214,1,0,-1,-2,1,-1,-1,2
1582293946463207,-11,-4,-4,-2,-1,-3,-1,-5
1582293946463207,1,-1,1,-1,-1,0,2,2
1582293946464239,-1,-1,0,-2,-1,-1,-1,-1
1582293946464239,0,-1,-1,0,-2,0,-2,0
1582293946485290,2,2,-1,-1,-1,-1,-2,0
1582293946485290,0,-2,0,0,-1,-1,-2,-2
1582293946487141,-3,0,-3,-1,-1,-2,1,-1
1582293946487141,1,0,1,0,0,0,0,-1
1582293946500247,-1,-3,-1,-1,-1,-2,-2,-1
1582293946500247,-4,-1,-2,0,0,-2,-1,-2
1582293946502041,-1,-1,-3,-1,-1,-1,0,-2
1582293946502041,-2,-1,-1,-2,0,-1,-3,-3
1582293946523168,-2,-2,-2,-1,-2,0,-1,-2
1582293946523168,0,0,1,1,-1,-2,-2,-1
1582293946523983,-1,-2,-1,0,-2,-3,-2,0
1582293946523983,-3,-2,-2,0,-2,-1,0,-1
1582293946544983,0,0,-2,-1,-1,0,-3,-1
1582293946544983,0,0,-2,-2,-2,-1,-2,1
1582293946547103,1,0,-1,-1,0,-2,-1,-2
1582293946547103,-12,-5,-2,-1,-1,-2,-2,-5
1582293946560334,2,0,-2,-2,-1,-2,0,0
1582293946560334,-2,-1,-2,0,-1,-1,-1,-1
1582293946566995,0,-1,-1,-2,-1,0,1,-1
1582293946566995,2,0,-3,-1,0,-2,0,0
1582293946582973,-2,1,-1,0,-1,-1,-3,0
1582293946582973,-2,-5,-1,-1,-1,0,0,-2
1582293946584818,-1,-1,-1,-1,-1,-1,-2,0
1582293946584818,1,1,-1,0,-1,-1,-1,0
1582293946605761,-3,-3,-1,-1,0,-2,-2,0
1582293946605761,-1,0,0,-2,0,-2,0,0
1582293946606767,-2,-1,-1,-1,-1,2,-4,-2
1582293946606767,0,-3,-1,-3,-2,-2,-1,-1
1582293946628074,2,2,1,0,0,0,-1,-1
1582293946628074,0,1,0,2,-2,0,0,-1
1582293946629704,-2,-3,-1,0,0,-2,-2,-1
1582293946629704,0,0,-2,-1,0,-1,-1,-1
1582293946642867,-1,-1,-3,-1,-1,-1,1,-2
1582293946642867,0,-1,-2,1,0,1,0,-1
1582293946644659,3,3,-1,0,-2,0,1,0
1582293946644659,3,-2,-1,-1,-2,-1,0,1
1582293946665609,-7,-4,0,-1,1,-2,-2,-5
1582293946665609,0,-2,-1,-3,-1,-2,-1,-1
1582293946666606,-2,1,-1,0,0,-1,-1,0
1582293946666606,2,0,2,-1,-1,-1,0,0
1582293946679713,1,-1,-1,1,-2,-1,-1,0
1582293946679713,-3,-3,-1,-3,-3,-1,-2,0
1582293946686753,-1,-2,-1,-1,-1,1,0,-2
1582293946686753,-1,-1,-3,-1,-1,-1,-1,-1
1582293946702656,0,0,0,-2,0,-2,1,0
1582293946702656,-3,0,-2,-1,-1,1,-1,-2
1582293946704644,-3,-2,-2,-1,-2,-1,-1,-2
1582293946704644,-2,-1,1,-1,-1,-2,-3,-2
1582293946725637,-2,1,-1,0,-2,0,-1,-1
1582293946725637,-1,-2,-2,-1,-1,-3,-1,-2
1582293946726938,0,-1,0,-1,-1,-2,2,0
1582293946726938,-1,0,-2,-1,-1,0,-2,-1
1582293946739462,3,1,1,1,-1,-1,-1,3
1582293946739462,-11,-4,-4,-2,0,-2,-5,-5
1582293946746541,0,-1,0,2,-1,-2,0,-1
1582293946746541,-1,-2,0,-2,-1,1,1,-1
1582293946763390,0,-1,0,-1,-1,-1,0,0
1582293946763390,1,1,0,-1,-1,2,2,-1
1582293946764596,-1,-3,-3,-1,-1,-2,-2,-2
1582293946764596,0,-1,-1,-1,-1,-1,-1,-1
1582293946785487,0,-2,-1,-3,0,0,-2,-1
1582293946785487,-1,-1,-1,-1,-1,-2,1,1
1582293946787290,-2,-1,-2,-1,0,-1,0,-1
1582293946787290,1,-3,0,1,-1,0,-2,3
1582293946799801,-1,-3,-1,-1,-1,-1,-1,0
1582293946799801,0,0,-2,0,-2,-2,-1,0
1582293946807268,-2,-1,0,-1,0,1,-1,-3
1582293946807268,-1,-1,0,-1,-1,-2,0,-2
1582293946822237,-1,-1,-1,-2,-3,1,0,1
1582293946822237,1,-1,-1,0,0,-1,-1,2
1582293946823180,-1,-2,-1,0,-3,-1,-3,-1
1582293946823180,-2,-2,-1,-1,1,1,0,-2
1582293946844126,-1,-1,0,1,0,-1,-1,-1
1582293946844126,3,0,0,-1,0,-2,-1,1
1582293946845121,2,0,-1,-1,0,0,0,0
1582293946845121,-11,-3,0,0,0,-1,-1,-5
1582293946859225,1,0,-1,-1,0,-2,-1,-1
1582293946859225,0,0,0,0,-1,0,-1,-1
1582293946867548,0,-1,0,-1,-1,-2,-3,0
1582293946867548,1,0,-3,-1,-2,-3,-2,-2
1582293946882302,-3,-1,-3,-1,-2,0,0,-3
1582293946882302,-1,-1,-1,0,0,0,-1,0
1582293946883070,-1,-1,-2,0,-1,0,-1,0
1582293946883070,4,1,1,0,1,1,-1,0
1582293946904970,-1,0,-2,-2,-3,-2,-1,0
1582293946904970,2,-2,-1,-1,0,-1,1,1
1582293946904970,-5,-1,-3,-2,-1,0,-2,0
1582293946904970,-1,-1,-2,-3,-2,-1,-2,1
1582293946919088,-1,-2,-1,-2,0,0,1,-2
1582293946919088,0,0,0,-3,-1,-1,-1,-1
1582293946927102,-1,-2,-1,-1,-2,0,-1,-2
1582293946927102,0,-2,-2,0,-3,0,0,0
1582293946942062,2,1,0,-1,0,-1,0,-1
1582293946942062,-3,-2,0,-1,-2,0,-1,0
1582293946942920,-9,-1,-1,0,-1,-2,-1,-6
1582293946942920,1,0,-1,0,-1,-1,-2,0
1582293946964806,-1,-1,-2,-1,0,0,1,-1
1582293946964806,0,-1,0,-1,-1,-1,-1,-1
1582293946965798,0,-1,-2,0,-1,-2,-2,0
1582293946965798,-3,0,0,-1,-1,-1,-1,0
1582293946979119,-4,0,0,-2,-1,0,-1,-2
1582293946979119,0,-1,-1,0,-1,-1,1,-2
1582293946986947,1,0,-1,-2,0,0,1,0
1582293946986947,-1,-1,-3,-2,0,-1,1,-1
1582293947002754,0,-1,-2,0,0,-1,0,1
1582293947002754,-3,0,-1,-2,0,-1,-1,-1
1582293947002754,1,-2,0,1,-1,0,-1,-1
1582293947002754,1,1,0,-1,1,0,0,0
1582293947024836,-4,0,0,-2,-1,0,-2,-1
1582293947024836,-2,-2,-2,-3,-3,0,-1,-3
1582293947025640,2,0,0,0,-1,-3,-1,1
1582293947025640,0,0,-1,-2,-1,-2,-2,-5
1582293947038773,0,-1,-1,0,-2,-1,-1,-1
1582293947038773,0,-1,-1,1,-2,0,1,0
1582293947047584,0,1,0,-1,-1,-1,-3,-1
1582293947047584,2,-1,0,-1,0,-2,0,0
1582293947070528,-2,-1,2,2,0,-2,-2,0
1582293947070528,-1,0,-1,-2,0,-2,-1,-4
1582293947071520,-1,-1,-1,-1,0,-1,-1,-1
1582293947071520,-1,-1,-1,1,-1,1,-2,0
1582293947084704,2,0,0,0,-1,-2,-2,2
1582293947084704,-1,-1,-1,-1,-1,1,-1,0
1582293947085489,-2,-1,-1,-2,-1,-2,1,-1
1582293947085489,1,-1,-1,0,0,-1,-1,-2
1582293947099501,0,0,-2,-1,-1,0,-1,-2
1582293947099501,-1,1,0,0,-1,-2,-2,-1
1582293947107640,0,2,-1,-1,0,0,-2,-3
1582293947107640,-1,-2,0,0,-1,-1,1,0
1582293947122425,-2,-4,-2,-3,-1,-2,-1,-1
1582293947122425,-1,-1,0,-1,-1,0,-2,1
1582293947122657,-1,-1,0,1,0,-1,-1,-1
1582293947122657,-4,-1,-2,0,-2,-1,0,0
1582293947144519,-1,-1,1,0,1,0,-1,0
1582293947144519,-1,-2,-2,-1,0,-2,1,0
1582293947145326,-3,1,1,-1,-2,0,-1,0
1582293947145326,-1,0,-2,0,-2,0,0,-1
1582293947159476,3,0,-2,-1,-3,-1,1,-1
1582293947159476,0,-1,0,-1,-1,0,-1,-1
1582293947167497,-7,-3,-1,-2,-2,-2,-2,-6
1582293947167497,-2,-2,-1,-1,-2,0,-2,-2
1582293947182441,0,-1,-1,-1,0,-1,-1,0
1582293947182441,0,-1,1,0,-1,-1,-2,-1
1582293947183218,0,0,-1,-1,-1,-1,0,1
1582293947183218,-2,0,0,0,-1,1,0,-2
1582293947204664,-1,-2,0,-2,-2,-1,0,0
1582293947204664,-3,-2,-1,-1,1,-1,-1,-2
1582293947205159,0,-3,-1,-2,-2,-1,0,-1
1582293947205159,0,-1,-1,-4,-1,0,0,1
1582293947219328,-2,0,-2,-2,-1,-1,-1,-2
1582293947219328,-3,-1,-3,0,-2,-1,-1,-1
1582293947227316,1,-1,0,0,-1,-1,-1,0
1582293947227316,0,-1,0,0,1,-3,0,0
1582293947242390,3,0,-1,0,0,0,1,-2
1582293947242390,-4,-1,-2,-1,-1,-2,0,0
1582293947243057,0,-1,-1,-1,-3,0,0,-1
1582293947243057,1,0,0,-1,-1,-2,-1,-1
1582293947265020,0,-1,0,1,1,-1,0,0
1582293947265020,1,-1,-2,-1,-2,-1,0,-3
1582293947265385,2,-1,0,2,0,1,0,0
1582293947265385,-3,-2,-1,-2,-1,-1,-1,-1
1582293947279163,-3,-1,0,0,0,0,0,-2
1582293947279163,-2,0,-1,-1,-1,-1,-2,0
1582293947286988,-2,-3,-1,-2,0,0,0,-2
1582293947286988,1,-1,1,-1,-1,0,-2,0
1582293947302461,-1,0,-1,-1,1,-2,-2,-2
1582293947302461,0,-2,-1,-1,-1,0,0,-1
1582293947302953,-1,0,-3,-1,0,-1,-1,-1
1582293947302953,-1,0,0,0,0,-1,0,-2
1582293947324982,-2,-2,-1,0,-1,2,-2,-2
1582293947324982,1,-1,0,0,-2,0,-2,-2
1582293947325836,2,1,-1,-1,-2,0,0,2
1582293947325836,0,-1,0,-1,0,-1,-1,-2
1582293947355756,-1,-2,1,-2,-1,-1,0,0
1582293947355756,3,-2,-1,-1,-3,0,0,-1
1582293947355756,-12,-5,-4,-2,-2,-1,-2,-5
1582293947355756,0,-1,0,-2,0,-3,1,0
1582293947361740,0,0,1,0,0,-1,-1,-2
1582293947361740,2,0,-1,-1,0,-2,-1,0
1582293947362825,2,0,-1,-1,-2,-1,0,1
1582293947362825,-3,0,-1,0,-1,-1,-1,-5
1582293947393109,-3,-2,-2,-1,-2,-3,-3,-1
1582293947393109,1,-1,-1,1,-1,0,-2,0
1582293947393655,0,-2,-1,-1,-2,0,0,0
1582293947393655,-2,0,-1,-2,0,-2,-1,1
1582293947407672,0,-1,-2,-1,-2,0,1,0
1582293947407672,-3,-1,1,0,-1,-1,0,-3
1582293947408855,1,-3,0,0,0,-1,-2,-2
1582293947408855,2,0,-1,0,-1,0,-2,-2
1582293947421781,-2,0,0,-2,0,-2,-1,-1
1582293947421781,-4,-1,-1,-2,-2,-5,-1,-1
1582293947422576,1,0,-1,-2,-2,-1,-2,-1
1582293947422576,1,-3,0,0,-1,1,-1,0
1582293947444989,-1,0,-2,-2,-2,0,-1,-1
1582293947444989,2,2,-1,-1,-2,-2,-1,-1
1582293947445566,2,-2,-2,-1,-2,-1,-1,1
1582293947445566,-9,-3,-2,-1,-1,-2,-1,-6
1582293947468655,-1,-1,-2,0,0,-2,-1,1
1582293947468655,0,-1,-2,-1,0,0,-1,-1
1582293947468655,1,2,-1,0,-1,0,0,-2
1582293947468655,0,0,-1,-1,-2,0,1,-1
1582293947482621,-2,-4,-1,0,-2,-1,0,0
1582293947482621,0,0,1,-1,-2,-1,-1,0
1582293947482621,-1,1,0,-1,-1,-2,-1,1
1582293947482621,-1,-1,-3,-2,-1,1,-1,-1
1582293947504677,0,0,0,-1,-2,-1,-1,-1
1582293947504677,1,0,-1,-1,0,1,-2,-3
1582293947505360,0,-2,1,0,-2,-1,-1,-1
1582293947505360,0,2,0,0,-1,-3,-1,1
1582293947535414,2,-2,0,-2,0,1,-1,-1
1582293947535414,-3,-1,-1,-1,-2,0,-3,0
1582293947536326,-1,0,0,-3,0,-2,0,0
1582293947536326,1,-2,-1,0,-2,-2,0,0
1582293947542382,-1,-1,-1,-1,-2,-2,-3,-4
1582293947542382,3,-2,-1,1,-1,1,-1,1
1582293947543255,-9,-4,-2,-1,-1,-1,-2,-2
1582293947543255,2,0,-1,-1,-1,-1,1,2
1582293947565255,-2,0,-1,-1,0,0,-2,-2
1582293947565255,0,-1,-3,-3,-1,0,0,-2
1582293947565431,2,1,0,0,1,-1,1,0
1582293947565431,0,0,-1,1,-1,1,-1,-2
1582293947588188,-3,-1,-2,-3,-3,-2,0,-1
1582293947588188,-1,-1,-1,-1,-1,-1,-1,-1
1582293947588188,0,-2,-1,-2,-2,-1,-2,-3
1582293947588188,-1,-1,-2,0,0,-2,0,-1
1582293947602331,2,-1,-3,-1,-1,-2,-1,0
1582293947602331,-2,-2,0,0,-1,-3,-2,-2
1582293947603158,-1,-1,-2,0,0,-1,-1,-1
1582293947603158,1,0,-1,0,-1,0,-3,-1
1582293947626258,1,-2,1,0,-2,-1,-3,-2
1582293947626258,-2,0,-1,-1,1,-1,-1,-2
1582293947632234,-2,-2,-3,-2,-2,-1,-2,-1
1582293947632234,-1,-2,1,-2,-1,-2,-2,0
1582293947648065,0,-1,1,-1,1,0,-1,-1
1582293947648065,-1,-1,0,-2,0,-4,-1,0
1582293947648065,-6,-2,1,0,1,-1,0,-1
1582293947648065,-2,-2,-3,-1,-3,0,-2,-1
1582293947662135,-3,1,-3,-2,-2,-3,-2,-4
1582293947662135,0,1,2,-1,-1,0,-2,-2
1582293947663218,3,0,-2,-1,0,-1,0,0
1582293947663218,-1,-2,-1,-1,-1,-1,0,-3
1582293947693068,-1,1,0,-1,0,1,0,1
1582293947693068,-3,-1,-2,0,-1,-1,0,-1
1582293947693852,1,-1,-1,-1,-1,0,-1,0
1582293947693852,-1,-1,-1,-2,0,-1,-3,-2
1582293947707953,0,-2,-1,-1,1,1,1,-1
1582293947707953,-2,-1,0,-1,-1,-1,2,-1
1582293947708812,1,0,2,1,-2,-2,-2,0
1582293947708812,-2,0,-1,-1,-1,-1,-1,1
1582293947721953,0,-1,-1,0,-2,-2,-1,1
1582293947721953,-2,-1,-1,-1,0,-1,-1,0
1582293947722776,1,0,-2,-1,1,-2,0,-1
1582293947722776,-1,-1,0,-1,-2,-1,0,0
1582293947745715,-2,-1,-1,1,0,-1,1,0
1582293947745715,-2,-2,-1,-2,-2,1,-1,-2
1582293947745715,0,0,-2,-3,-2,-1,-1,0
1582293947745715,0,0,-2,-2,-1,1,-2,0
1582293947767857,0,-2,-1,0,0,0,1,1
1582293947767857,-10,-4,-2,-2,-1,-1,-1,-6
1582293947768973,1,-1,-3,-2,0,0,-2,0
1582293947768973,-1,-1,0,-2,-1,-1,-1,-1
1582293947790842,1,-2,-3,-2,-2,-2,-1,-2
1582293947790842,2,0,-1,-2,0,-2,1,1
1582293947790842,-1,-1,0,-1,0,0,0,-1
1582293947790842,-3,-1,-1,-2,-1,-3,0,0
1582293947804564,-2,0,-1,-2,-1,1,-1,-1
1582293947804564,0,-1,-3,-3,-2,-2,-1,0
1582293947805552,-1,-2,-1,-1,-1,-2,-1,-1
1582293947805552,2,0,0,-1,0,-2,0,-1
1582293947827648,-3,-2,-1,0,1,-1,0,0
1582293947827648,1,-3,-3,-1,-2,-1,-2,-1
1582293947828497,1,1,0,-1,-1,-1,-3,0
1582293947828497,0,-2,-1,0,-1,-1,0,-3
1582293947842648,-1,0,-1,-2,-2,-3,-2,0
1582293947842648,2,1,0,1,-1,1,-1,1
1582293947842970,-6,-2,-2,1,-2,-1,-1,-2
1582293947842970,-1,-1,-1,-1,-2,-1,-2,-1
1582293947864740,-1,-1,0,-2,0,-1,-1,0
1582293947864740,1,-1,-1,0,-1,-2,-1,-1
1582293947865400,4,1,0,0,1,-1,-2,1
1582293947865400,-2,-2,-1,1,0,-1,-2,0
1582293947887679,-2,-3,0,-1,-2,-2,0,-4
1582293947887679,0,1,-1,-1,1,-2,-3,-1
1582293947888331,-2,-1,-1,-2,-2,-2,-1,-3
1582293947888331,-3,0,-3,-3,-1,1,0,-2
1582293947902504,-1,-1,-2,-1,1,0,-1,2
1582293947902504,-1,0,0,0,-2,1,0,0
1582293947903291,0,-1,0,-1,-1,0,0,-1
1582293947903291,-2,-2,0,-1,-1,-1,-2,0
1582293947925291,0,-2,0,-1,0,0,0,0
1582293947925291,-3,0,-2,-1,0,-2,0,-2
1582293947925482,-1,-2,1,-2,1,0,-1,0
1582293947925482,3,0,0,1,-2,0,-1,-1
1582293947948492,1,-1,-1,-1,-1,-2,-1,-2
1582293947948492,2,-2,-1,0,0,0,-2,0
1582293947948492,-11,-3,0,-2,0,-1,-1,-4
1582293947948492,1,-2,0,-2,2,-1,-1,1
1582293947961193,-2,-1,0,0,0,-1,-3,-2
1582293947961193,0,2,0,1,0,0,-2,1
1582293947970187,3,-1,-1,0,0,0,-2,0
1582293947970187,-4,-2,-1,0,0,0,-1,-2
1582293947985071,-2,0,0,0,-2,0,-1,-2
1582293947985071,-1,-2,1,0,-1,-3,1,0
1582293947985071,1,0,-3,-1,-1,0,0,-1
1582293947985071,0,-1,-1,-1,-2,-2,-1,-1
1582293948008206,-2,-3,-3,-2,-1,0,0,-2
1582293948008206,-2,0,0,1,0,-1,-1,-1
1582293948009008,-1,-1,-2,-1,0,-2,-1,-2
1582293948009008,0,2,-1,-2,-1,-1,1,0
1582293948020987,-1,-1,-1,0,-1,0,-1,-2
1582293948020987,-3,-2,-1,-1,-2,-1,0,-3
1582293948030165,1,1,0,-1,-3,-1,0,0
1582293948030165,0,-1,-1,1,0,-1,-2,-1
1582293948045154,-2,-2,-1,-1,-1,-2,0,0
1582293948045154,0,-2,-1,-1,-1,0,-1,2
1582293948045154,4,1,-1,-1,1,-1,-1,0
1582293948045154,-11,-5,0,-1,-2,-1,-3,-7
1582293948068080,0,2,-1,-1,-1,-1,0,1
1582293948068080,-1,0,-3,-1,1,0,-2,0
1582293948068899,0,-2,-1,-1,-2,0,-1,-1
1582293948068899,-2,-1,-2,-1,-1,0,1,1
1582293948081867,0,0,-2,1,-1,1,-1,-1
1582293948081867,2,-1,0,-2,-2,0,1,-1
1582293948089993,-2,-2,-1,-2,-1,-1,1,-2
1582293948089993,0,-1,-2,0,-1,-1,0,1
1582293948104918,-1,1,-2,-1,-2,-3,-1,-1
1582293948104918,-2,-1,0,-1,-2,0,-1,0
1582293948105749,-1,-2,-1,-2,-2,-2,-3,-3
1582293948105749,-1,-1,1,-1,-1,0,-1,2
1582293948127900,-1,-2,-1,0,-1,-1,-1,0
1582293948127900,0,-1,-3,-2,0,-2,1,-2
1582293948128691,-1,-1,-1,-1,-1,-3,-1,0
1582293948128691,1,1,-2,-1,0,-1,0,0
1582293948141863,-1,0,0,1,-2,0,0,-1
1582293948141863,-2,0,1,0,-2,-2,-1,-2
1582293948149772,-1,0,-1,0,-2,0,0,0
1582293948149772,-1,-1,-2,-1,-1,-1,-1,-3
1582293948164916,3,0,0,0,-2,-2,-2,-1
1582293948164916,-1,-4,-1,-2,-1,1,-1,-1
1582293948165654,-3,-2,-1,0,-2,0,0,-4
1582293948165654,0,0,-1,-1,-2,-2,-1,-1
1582293948187870,-3,-1,-2,-2,-1,-1,-2,-1
1582293948187870,1,1,0,-2,0,-1,-1,1
1582293948188530,0,-1,0,-2,0,0,-2,2
1582293948188530,-1,-1,-2,-1,0,0,0,-2
1582293948201691,-1,-2,0,0,0,-1,-1,0
1582293948201691,-1,0,-1,0,-2,0,-1,-1
1582293948209996,-3,0,-1,-1,-1,-1,-1,0
1582293948209996,0,-1,-2,0,-1,-1,-2,-1
1582293948224485,-2,-3,-2,-3,-1,1,-1,-1
1582293948224485,-1,0,-2,-1,-1,-1,-1,-2
1582293948225433,-3,-2,-2,-1,0,-1,-1,-2
1582293948225433,0,-1,-1,-1,-1,0,-1,0
1582293948247702,0,0,0,0,0,-1,-1,-2
1582293948247702,-1,-2,-1,-1,-1,1,-1,-3
1582293948248368,1,0,0,0,-1,-2,-1,-1
1582293948248368,-1,0,-1,-1,-1,-2,0,-2
1582293948270320,-1,-1,1,-1,-1,0,1,0
1582293948270320,-2,-2,-1,-1,0,-3,0,-1
1582293948271308,1,0,-2,-1,0,0,-1,0
1582293948271308,-2,-1,-2,0,0,1,0,0
1582293948284474,-2,-1,-2,-3,0,1,0,-3
1582293948284474,3,1,-1,-1,0,-1,0,0
1582293948292445,-4,-4,-2,0,0,0,0,-1
1582293948292445,0,0,0,-3,-1,-1,1,-1
1582293948308264,1,-1,-1,-2,-1,-2,0,2
1582293948308264,0,0,-1,0,0,-1,-1,-1
1582293948308264,2,1,-2,0,-1,-1,0,2
1582293948308264,0,-2,2,-1,-1,-1,-3,-2
1582293948330347,-1,-2,-2,-2,-1,-1,-1,-1
1582293948330347,-4,0,-1,-1,-1,-3,-1,-1
1582293948331150,-1,0,0,0,-1,0,-1,-1
1582293948331150,-2,-2,0,-1,-1,-1,-1,-1
1582293948344113,-2,1,-3,-2,-2,-1,-3,-2
1582293948344113,0,-3,-1,0,0,-1,-1,-1
1582293948345369,1,0,-1,-4,0,-2,-3,-1
1582293948345369,0,-2,-3,-2,-3,0,-2,1
1582293948368226,1,2,0,1,-1,-1,-2,0
1582293948368226,-2,-1,-1,-1,-2,-2,-1,0
1582293948368226,-2,-1,-2,0,-2,0,0,-2
1582293948368226,0,-1,-1,-1,-1,-2,1,-1
1582293948390531,-1,-2,-2,-1,0,-2,-2,-1
1582293948390531,0,-1,-2,-2,1,1,1,-1
1582293948390992,0,-1,0,-1,-2,-2,-2,-1
1582293948390992,0,-2,-2,-1,-2,-1,0,0
1582293948404946,-1,1,-2,-1,-2,0,-1,-4
1582293948404946,-1,-2,0,-1,-1,-1,-2,-1
1582293948406146,-3,-1,-1,0,1,-1,1,-2
1582293948406146,-2,-1,-1,-2,0,-1,-1,-2
1582293948427887,0,-2,0,-2,-1,-3,-2,-1
1582293948427887,0,0,-2,-1,0,-1,-3,-2
1582293948429134,-1,-2,-2,-1,-1,0,0,0
1582293948429134,0,1,0,1,1,0,0,0
1582293948449832,-2,0,-1,-1,-1,0,-1,0
1582293948449832,-1,0,-1,-1,-2,-1,-1,-1
1582293948451824,-1,-2,0,-1,-1,-1,0,2
1582293948451824,0,-1,0,-2,0,0,-3,-2
1582293948463942,-3,-1,1,-2,-1,0,1,0
1582293948463942,-1,0,-3,-2,-2,0,-2,-1
1582293948473002,-1,1,0,-2,-2,-2,-2,-2
1582293948473002,4,-2,-1,-1,-3,1,-2,2
1582293948487937,-4,-3,-1,-1,-2,-1,-2,-3
1582293948487937,2,0,-1,0,-2,-2,-1,0
1582293948489721,0,-1,-1,-3,0,-2,-1,-1
1582293948489721,-1,0,-1,-2,-1,-1,-1,1
1582293948510948,2,1,-2,0,1,0,0,0
1582293948510948,-3,-2,-1,-1,-2,1,0,0
1582293948511664,0,-2,-2,-1,-2,-2,-1,-2
1582293948511664,-2,0,-1,-1,0,-1,0,-1
1582293948524096,0,-1,0,-1,0,0,0,1
1582293948524096,-2,1,-2,-2,-1,-3,-2,0
1582293948532655,1,0,-1,0,0,-1,-1,-1
1582293948532655,-1,-1,-1,-2,0,-1,0,-4
1582293948547977,-2,-2,0,-2,-3,0,0,0
1582293948547977,1,0,-1,0,0,-2,-2,-2
1582293948549562,-1,1,-2,1,-2,0,0,0
1582293948549562,-4,-2,-2,0,0,0,0,-1
1582293948570517,-1,-1,-2,-1,-3,-1,-3,-2
1582293948570517,1,-1,-1,-1,0,-1,0,0
1582293948571503,-1,0,-1,-1,-2,-1,0,0
1582293948571503,-2,-2,-1,0,0,0,-2,-1
1582293948584677,0,-2,0,0,-1,-1,0,-1
1582293948584677,0,-2,0,-1,-1,1,0,-1
1582293948591449,-2,-3,-2,1,0,-1,0,-1
1582293948591449,-1,-2,-4,-1,-1,1,-2,0
1582293948607611,-1,1,-2,0,-1,-1,-1,-1
1582293948607611,-3,-1,-2,-2,-1,-1,-1,-3
1582293948609403,0,-1,0,-1,-2,-1,-1,-2
1582293948609403,1,-1,-1,-1,-2,-2,0,0
1582293948630538,-2,-1,-1,-2,-1,0,-3,-1
1582293948630538,-3,-4,-1,0,-1,-1,0,-2
1582293948632339,0,-2,0,-1,-1,0,-2,-2
1582293948632339,2,1,-1,-1,-3,-3,0,2
1582293948644810,-1,-2,-1,-2,-1,-1,0,-2
1582293948644810,-2,-1,-1,-1,-1,0,-1,0
1582293948651514,1,-1,1,-2,1,1,-1,-3
1582293948651514,-4,-1,-1,0,-4,-3,-1,1
1582293948668249,-2,1,-1,0,-2,-3,0,-1
1582293948668249,0,0,0,0,1,0,2,-1
1582293948669243,-2,-1,0,-1,-1,1,-1,-1
1582293948669243,1,1,-1,-3,0,0,-1,-2
1582293948690662,-2,-1,-1,0,-1,0,-1,-3
1582293948690662,0,1,-1,-2,-2,-2,-1,0
1582293948692181,0,-2,-2,0,0,-2,0,0
1582293948692181,-2,-1,-1,-1,0,-2,0,-2
1582293948704158,0,-3,0,-1,-2,-3,0,1
1582293948704158,-1,-1,-2,-1,-1,-1,0,-1
1582293948711132,-2,0,-1,-1,-1,0,-1,0
1582293948711132,1,1,0,-1,0,0,-2,-1
1582293948728139,-5,-3,-2,0,0,-1,2,-3
1582293948728139,0,-1,-1,0,-1,-1,0,0
1582293948729181,1,0,0,-1,-2,-2,-3,1
1582293948729181,-1,0,1,0,0,0,1,-2
1582293948750231,3,1,-1,0,-2,-3,-3,1
1582293948750231,-1,0,0,-2,-1,-1,-1,-2
1582293948752021,-3,-1,-3,-1,-3,-2,1,-1
1582293948752021,-2,-2,0,1,-1,-1,-1,-2
1582293948764186,0,-1,-1,-1,0,0,1,-3
1582293948764186,1,0,-2,-1,-2,0,-1,0
1582293948773084,-3,-3,0,0,0,-2,-2,1
1582293948773084,-4,-3,-2,-1,-3,-2,0,-4
1582293948787940,-3,-2,-3,0,-1,-1,-2,-1
1582293948787940,-1,-1,-1,-1,-2,0,0,0
1582293948788921,1,1,0,-1,-2,1,0,1
1582293948788921,-1,-1,-1,-1,0,0,0,-1
1582293948810095,0,0,-2,1,-2,-1,-2,0
1582293948810095,-1,-1,-2,1,-1,-1,-1,-2
1582293948811999,-3,-2,-1,-2,-1,0,-1,-1
1582293948811999,0,-2,0,0,-1,-1,-1,0
1582293948824212,0,-1,0,-1,0,0,0,0
1582293948824212,-1,-1,0,-1,0,0,1,0
1582293948833001,-3,-1,-1,-2,-1,-2,-1,-2
1582293948833001,-1,0,-3,-2,-2,0,-1,-2
1582293948847957,2,1,2,-1,-1,0,-2,0
1582293948847957,-4,-3,-1,1,-2,-2,-1,-3
1582293948849764,-1,0,-3,-2,-1,-2,1,-3
1582293948849764,-1,0,-1,-1,0,0,0,0
1582293948870703,-2,0,0,-2,-1,-1,-2,-1
1582293948870703,-1,1,2,0,-1,0,-2,-2
1582293948871705,1,-1,0,-2,1,-2,-2,-2
1582293948871705,-1,0,-2,0,0,-2,0,1
1582293948883816,-2,0,-1,-1,-2,1,1,0
1582293948883816,-1,0,0,-1,-2,0,-1,-1
1582293948892897,1,1,0,0,0,0,-1,0
1582293948892897,-1,-3,-1,1,-1,0,0,0
1582293948908603,-9,-5,-3,-1,-1,-1,-3,-9
1582293948908603,0,-2,-2,-2,-1,-2,-1,0
1582293948909747,1,0,0,0,0,-1,-3,-1
1582293948909747,2,1,0,0,1,-1,0,-1
1582293948930742,4,1,0,-2,0,0,1,2
1582293948930742,-4,-2,-3,-1,1,-1,-2,-1
1582293948931914,-3,-1,-1,1,0,0,-1,-3
1582293948931914,-2,0,-1,-2,-2,-1,1,-1
1582293948943707,1,-1,-2,0,-1,0,0,-1
1582293948943707,2,1,1,-2,0,1,0,1
1582293948952547,0,-2,-1,-3,0,-1,-1,0
1582293948952547,-3,-1,-1,-1,0,-1,-1,0
1582293948968637,2,1,0,-1,-1,-1,-1,0
1582293948968637,-1,-1,0,-1,-2,0,-3,-3
1582293948970445,-2,-1,-3,0,-1,-1,-2,-1
1582293948970445,-2,-1,0,0,-1,-1,-1,0
1582293948990556,0,-3,0,-1,0,-2,-2,-1
1582293948990556,-1,0,-1,-2,0,1,-1,-1
1582293948992377,-2,-1,0,0,-1,-1,-1,-1
1582293948992377,0,-1,1,-1,0,0,-1,0
1582293949004356,-2,-1,-1,-1,0,-3,-3,2
1582293949004356,-1,-2,-1,-1,-2,0,0,0
1582293949013321,-1,0,0,-1,-2,-1,-1,-2
1582293949013321,1,0,-1,-1,-3,-1,-2,-3
1582293949027330,-2,-1,-1,-1,-1,-1,-2,-2
1582293949027330,-1,-2,-2,-2,-1,-1,-1,0
1582293949029282,1,-2,0,0,-1,-1,0,0
1582293949029282,3,-1,0,-1,-1,1,-2,0
1582293949050427,-3,-3,-1,-1,1,0,-1,-1
1582293949050427,-1,0,0,-1,-1,-3,-2,-4
1582293949052222,-2,-1,0,-3,-1,0,0,0
1582293949052222,-2,-1,0,-2,-1,-1,-2,-1
1582293949064372,4,0,0,0,-2,-2,0,1
1582293949064372,-2,-2,0,0,-3,-2,1,-1
1582293949073161,-1,-1,-2,-1,-3,-2,-1,1
1582293949073161,-3,-1,-2,0,-2,-1,-3,-3
1582293949088121,-2,-1,-2,-2,-1,0,-1,1
1582293949088121,-1,0,0,0,0,-2,0,0
1582293949089237,-1,0,-1,-1,-1,-1,1,-3
1582293949089237,-3,-1,-1,-1,-1,1,-2,0
1582293949110276,-2,0,-1,0,-2,-2,0,-2
1582293949110276,0,-2,-1,-2,-1,-1,-1,-1
1582293949112058,-1,0,-1,0,0,-1,-2,0
1582293949112058,0,0,0,-2,-1,-2,0,0
1582293949124066,-2,-2,-1,-1,-1,1,-1,-2
1582293949124066,1,-1,0,1,-1,-2,-2,1
1582293949133045,0,-1,-3,-2,0,0,1,-2
1582293949133045,-3,-2,-3,0,0,-2,-3,-3
1582293949148186,0,1,-2,-1,1,-1,-3,-2
1582293949148186,0,1,-1,0,0,-2,-2,-1
1582293949149521,2,-1,0,0,-2,-1,-1,2
1582293949149521,-11,-5,-2,0,-2,-2,1,-5
1582293949169961,2,0,1,0,-1,-1,0,0
1582293949169961,0,-1,-2,0,1,-2,-2,0
1582293949171898,0,-1,-2,-2,-1,-2,-1,-3
1582293949171898,3,-1,-2,-1,1,0,1,1
1582293949184288,-2,-1,0,-2,-2,-1,-1,-1
1582293949184288,-3,-1,-2,-1,-1,0,-1,-2
1582293949192841,-1,-1,-1,0,-1,-2,-2,-2
1582293949192841,-1,-2,0,-3,-1,-1,-1,-2
1582293949208172,-2,0,-1,-1,-1,0,-2,-1
1582293949208172,0,-1,-1,-2,-1,0,-2,-1
1582293949209795,0,-1,0,-1,0,-2,-1,0
1582293949209795,0,-1,2,-1,-1,-2,-2,0
1582293949230783,-2,-3,-3,0,-3,-1,-1,-2
1582293949230783,0,0,0,0,0,2,1,-1
1582293949232028,-2,-1,-1,-1,-1,0,-1,-2
1582293949232028,-2,1,-2,-2,-1,-2,-2,-2
1582293949252882,1,0,-1,-1,1,0,0,1
1582293949252882,2,0,1,-2,-3,-2,0,1
1582293949254675,-11,-3,-3,0,0,0,-1,-6
1582293949254675,3,-1,-1,1,-4,0,-1,2
1582293949268154,-1,-1,0,1,-1,-2,0,0
1582293949268154,0,-2,-2,0,-2,-2,-1,-1
1582293949269643,3,0,0,-1,-1,-1,-2,0
1582293949269643,-2,-3,-1,0,1,-3,-1,-1
1582293949290781,-3,-1,-3,-2,-1,0,0,-4
1582293949290781,0,0,0,0,0,1,0,1
1582293949292066,0,0,0,0,-2,-1,-2,1
1582293949292066,-1,-1,1,0,-1,-1,-1,0
1582293949312984,3,-1,-1,-1,0,-1,0,-1
1582293949312984,0,-2,-1,-3,0,-2,-1,-1
1582293949314514,2,0,-1,0,0,-1,-1,1
1582293949314514,-1,-2,-2,-2,0,1,1,-1
1582293949327674,-4,-2,-1,-1,0,-3,-2,-5
1582293949327674,-2,0,-2,-2,-2,0,-1,-3
1582293949329477,-2,1,-2,0,0,0,0,1
1582293949329477,4,-1,0,-1,-1,-1,0,1
1582293949350624,0,1,1,-1,0,2,-2,1
1582293949350624,-3,-2,-2,0,-1,0,-1,-2
1582293949351598,-1,-1,0,0,-2,-2,0,-1
1582293949351598,-2,0,-2,-1,-2,-1,-2,-4
1582293949373358,0,0,1,-1,-1,-2,-1,1
1582293949373358,-1,0,-2,-2,0,-2,-1,-1
1582293949374665,-2,-2,-2,-2,0,-1,0,-3
1582293949374665,0,0,-2,-1,0,-1,-1,-1
1582293949387330,0,-1,-2,0,-1,-1,-3,0
1582293949387330,-2,-1,0,0,-1,0,0,1
1582293949394329,-4,-3,-1,-2,-2,-1,0,-2
1582293949394329,-1,1,0,-2,0,-1,1,0
1582293949410495,4,2,0,0,-3,0,-1,2
1582293949410495,-2,-1,-1,-1,-2,-1,-2,2
1582293949412254,-6,-2,-1,-2,1,-1,-2,-6
1582293949412254,0,-1,0,-2,-2,-2,-3,-1
1582293949433247,-1,0,0,-1,-1,2,1,-1
1582293949433247,2,-1,0,-1,0,-1,-2,-3
1582293949434874,0,-2,-1,1,-1,0,-1,1
1582293949434874,-2,0,-1,0,0,0,-2,-1
1582293949447391,-1,-2,-2,-1,-1,-2,0,-1
1582293949447391,-2,0,-2,-1,-1,-1,-1,-2
1582293949454188,1,0,-2,0,0,-1,-1,-2
1582293949454188,-1,0,-1,-2,-1,0,-1,-2
1582293949470155,-1,-2,1,0,0,-1,-1,1
1582293949470155,-2,-2,-2,1,-2,0,-1,-1
1582293949472338,0,-1,-1,-2,0,0,-1,0
1582293949472338,-1,-1,-1,0,-3,-1,0,-1
1582293949493219,-2,0,-1,-1,-1,-3,0,-2
1582293949493219,0,0,0,-1,1,-1,2,1
1582293949494480,1,-1,1,-2,0,-1,-1,1
1582293949494480,-10,-3,-1,0,-2,-1,-2,-7
1582293949507044,0,-2,-1,-1,1,-1,-1,0
1582293949507044,0,1,-1,-1,0,-1,0,-1
1582293949514289,1,0,-1,0,-1,0,-1,0
1582293949514289,2,1,-1,0,-1,-2,0,-1
1582293949530937,-1,-1,-1,-1,-1,-1,-1,-2
1582293949530937,0,-3,-2,-3,-1,-1,-1,-2
1582293949531935,-1,-1,-2,-1,-2,-1,-1,1
1582293949531935,-1,-3,-2,0,0,1,0,-1
1582293949553082,-2,-1,-2,-1,-2,-1,-2,-1
1582293949553082,-2,-2,0,0,1,-3,-2,-2
1582293949554069,0,-1,-2,0,-1,-2,0,-1
1582293949554069,1,1,1,1,-1,-1,-1,0
1582293949567056,-3,-2,-3,-1,-2,-2,-2,-2
1582293949567056,-1,-2,-1,-1,-2,0,0,0
1582293949573861,3,1,-2,-3,-4,-1,-1,1
1582293949573861,-2,-3,0,-1,0,-1,0,0
1582293949590778,-2,0,-1,-2,1,0,-2,-5
1582293949590778,0,-1,-1,0,0,-2,-1,-2
1582293949591773,-2,-3,-1,-2,0,-1,-3,0
1582293949591773,4,1,0,-2,-1,1,1,2
1582293949612955,0,-2,0,0,-1,0,0,1
1582293949612955,-3,-1,-1,0,0,1,-1,-4
1582293949614717,-2,-2,-1,-1,-2,-1,-1,-2
1582293949614717,-2,-1,-3,-2,-3,-2,-1,-1
1582293949626868,-1,0,0,0,-1,-1,1,-2
1582293949626868,0,-2,0,-1,-2,-2,-1,-1
1582293949633821,-1,0,1,-1,1,-1,-1,1
1582293949633821,-1,0,2,-2,0,-1,0,-1
1582293949650615,2,-1,-2,-1,0,-2,-1,0
1582293949650615,1,0,-2,-1,0,1,-2,1
1582293949651778,-2,-2,0,1,-1,1,-1,-2
1582293949651778,-1,-2,-1,-1,-1,-1,-1,0
1582293949672561,-1,-1,-1,-1,-1,-1,-1,-1
1582293949672561,-2,-2,0,-1,0,-2,0,0
1582293949674551,-3,-2,0,0,-1,-1,0,-1
1582293949674551,-2,-2,-1,-1,0,-2,-1,0
1582293949687535,0,0,-2,-1,-2,0,-2,0
1582293949687535,0,-1,0,0,-1,-1,-1,-1
1582293949694558,-2,0,0,0,-1,-3,1,0
1582293949694558,0,1,-1,0,0,-1,0,1
1582293949717989,-2,-1,-2,-3,-2,-2,-3,-2
1582293949717989,-2,-1,-2,-1,-3,-1,-1,-2
1582293949719433,0,-1,-1,0,-1,-1,-1,-1
1582293949719433,-1,-3,-2,0,-1,-2,-1,-2
1582293949732873,-1,0,-1,0,-3,-1,-1,0
1582293949732873,0,0,-1,-1,0,0,1,1
1582293949734600,-1,0,0,0,-1,-2,-2,-2
1582293949734600,0,-2,0,-2,-1,-1,-1,0
1582293949746550,-1,-1,-1,0,0,-1,-1,1
1582293949746550,0,-1,-2,-2,-1,-2,-2,-2
1582293949755335,-1,-1,-1,-2,-1,0,0,-2
1582293949755335,0,0,-2,-1,-2,-2,-2,-1
1582293949770349,-2,-1,-1,-1,-1,-2,-1,0
1582293949770349,1,1,1,-1,0,0,2,0
1582293949772290,-1,-1,-1,-2,-1,-1,1,1
1582293949772290,-7,-4,-1,-1,-2,0,-2,-8
1582293949793284,2,1,-1,-2,-2,-1,-1,-2
1582293949793284,-2,-2,-2,0,-1,-1,-2,-1
1582293949794233,2,1,-1,-1,1,0,-1,0
1582293949794233,-1,-1,-2,-2,0,-1,0,1
1582293949806256,-1,-1,-1,-2,-1,-1,0,-1
1582293949806256,1,0,-1,0,-1,0,-1,-1
1582293949815178,-1,-2,-1,-1,-1,1,0,-1
1582293949815178,1,2,0,0,-1,0,-1,1
1582293949830179,-3,-2,-1,-1,0,1,2,-2
1582293949830179,-2,-2,-2,-2,0,0,-2,1
1582293949832177,-2,0,-2,-1,-2,-2,0,-2
1582293949832177,1,0,-1,0,-2,0,-2,0
1582293949853128,-1,0,-1,1,-1,-1,-1,0
1582293949853128,-2,-1,-1,-1,-2,-4,-1,-1
1582293949854320,-1,-1,-1,-1,-2,-2,0,0
1582293949854320,1,-3,-2,-1,-2,0,2,1
1582293949867085,-1,-2,1,-1,0,0,-3,-1
1582293949867085,2,-1,-1,-1,0,-1,-2,0
1582293949875021,-7,-2,0,-1,0,0,-2,0
1582293949875021,2,0,-1,0,-2,-1,-1,-1
1582293949890446,-2,-3,-1,-2,-2,-2,-2,-1
1582293949890446,-1,0,0,0,0,-1,0,-2
1582293949891969,1,-1,-1,-1,-2,-1,-1,0
1582293949891969,0,1,0,-1,-1,0,-1,-1
1582293949913153,-1,0,-1,-1,-1,-2,0,-1
1582293949913153,0,-2,0,0,-2,-1,-1,1
1582293949913911,2,0,-2,-1,-1,-2,0,-1
1582293949913911,-2,-1,0,-1,0,-1,-3,-1
1582293949926893,1,2,-1,2,0,0,0,0
1582293949926893,-3,-1,-2,-2,-1,-1,0,-1
1582293949935853,-1,-2,-1,-1,0,0,-1,2
1582293949935853,-3,-1,-2,-1,-1,-1,-2,0
1582293949950018,-1,-3,-1,-1,-1,0,-1,1
1582293949950018,-4,-3,0,-1,-2,0,-1,-2
1582293949956795,0,-1,1,-1,-2,0,-2,-1
1582293949956795,0,0,0,-1,0,0,0,-1
1582293949972948,1,-2,0,-2,0,-2,-2,-1
1582293949972948,-1,-2,-3,-1,0,-1,0,1
1582293949974764,0,-1,-1,-2,0,-2,0,0
1582293949974764,-1,0,-1,-1,-2,-1,0,0
1582293949986727,-1,-1,0,-2,-1,0,1,-1
1582293949986727,-2,-1,-1,-1,-2,-3,-3,-2
1582293949995746,0,0,-1,1,-1,-1,-1,-1
1582293949995746,-2,-1,-2,-1,-2,-1,0,0
1582293950010654,-2,0,-1,-1,-2,-1,0,-1
1582293950010654,-1,-1,0,-1,-1,-1,-1,0
1582293950012401,-4,-2,0,-1,-2,-2,-2,-3
1582293950012401,0,-1,-2,-1,-2,-1,-2,-1
1582293950032792,0,-1,-2,-1,-1,-1,-1,-1
1582293950032792,-1,-1,1,0,-2,-1,1,-2
1582293950034600,-1,-1,-3,-1,-1,0,-1,1
1582293950034600,0,0,0,-2,1,0,2,0
1582293950046707,-1,-2,-1,-1,0,-1,-2,-3
1582293950046707,0,-1,-1,1,0,0,-3,0
1582293950055735,-2,0,0,-1,0,-1,0,-2
1582293950055735,-2,-2,-1,-1,-1,-2,1,0
1582293950070560,0,-2,-2,0,1,0,-1,0
1582293950070560,-1,0,-2,-2,0,-2,0,-1
1582293950071585,0,-2,-2,0,-1,-1,0,-1
1582293950071585,-1,-1,-2,-1,-1,-2,-2,-1
1582293950092626,0,0,-2,-1,0,0,0,0
1582293950092626,0,-1,0,-1,-1,-2,0,-1
1582293950094428,0,-2,-1,-1,-2,0,-1,-1
1582293950094428,0,0,-1,0,-3,-1,-1,-2
1582293950106602,-1,0,0,0,-1,-2,0,0
1582293950106602,0,-1,-2,-1,-1,0,-1,0
1582293950115377,-3,-1,-2,-1,-1,-1,0,-1
1582293950115377,-1,-2,-1,1,-1,-1,-2,0
1582293950130542,0,-1,0,-1,-3,0,-1,-1
1582293950130542,0,-2,-1,0,-2,0,1,-2
1582293950132405,4,0,0,0,0,-2,-1,0
1582293950132405,-10,-5,-2,-3,-2,1,-2,-6
1582293950153283,1,1,-1,-1,-1,-1,-2,0
1582293950153283,-1,1,-1,-2,0,-1,-1,0
1582293950154280,0,-2,0,-1,0,0,1,-1
1582293950154280,2,-2,-1,-1,-2,-2,0,0
1582293950175669,0,-2,-3,1,-1,0,0,-1
1582293950175669,-1,0,0,0,0,0,-1,-3
1582293950177207,-1,0,-2,-2,-1,0,0,-1
1582293950177207,1,0,0,0,-1,-1,-2,-1
1582293950190719,-2,-2,-1,-1,-1,0,-1,-1
1582293950190719,0,-1,-2,-1,-2,-2,-2,0
1582293950192167,-1,-2,-2,-1,-1,0,-1,-1
1582293950192167,2,1,-1,1,-1,-2,-1,0
1582293950213294,0,0,-1,-1,-1,-1,2,-2
1582293950213294,-3,-1,1,-2,1,0,-2,-1
1582293950214503,-3,-1,-2,-1,-1,-1,-3,0
1582293950214503,5,0,-2,-1,0,-2,-2,2
1582293950235532,-3,-3,-1,0,1,-1,-2,0
1582293950235532,1,-1,-2,0,-1,-1,1,0
1582293950237101,-1,-1,-1,0,-2,0,-1,-1
1582293950237101,-1,1,0,-1,0,-1,0,-1
1582293950250195,2,0,0,-1,-2,0,-1,1
1582293950250195,-1,-3,-1,-1,0,-1,-2,-1
1582293950255996,0,0,0,0,-1,0,-3,-1
1582293950255996,1,-1,-1,0,-2,-1,0,0
1582293950273160,-2,1,-2,-1,-1,-1,0,-2
1582293950273160,-1,1,-1,-1,-1,-2,0,-1
1582293950273949,0,-2,-1,0,-2,-1,-2,-1
1582293950273949,-1,-2,-2,0,-1,1,-2,-2
1582293950295209,-1,-2,0,-1,-2,-3,0,-1
1582293950295209,-2,-3,-2,0,0,-2,-1,1
1582293950296928,-1,-1,0,-1,0,-2,-2,-1
1582293950296928,-1,1,0,-1,-2,0,-1,0
1582293950310899,0,1,-1,-2,-2,-2,-3,-2
1582293950310899,0,0,1,-1,-2,-1,-1,0
1582293950311849,-1,0,-1,-1,1,-1,-1,-1
1582293950311849,-2,-2,-1,-2,-1,-3,-2,-1
1582293950332994,-1,-1,-1,-2,-1,0,0,-1
1582293950332994,0,0,0,-1,-1,0,-1,-1
1582293950334829,-1,0,-1,-1,-1,-1,1,1
1582293950334829,-6,-2,-1,-3,-3,-5,-6,-6
1582293950355727,5,1,-1,0,0,0,-1,2
1582293950355727,-8,-4,-2,-2,-2,-1,-2,-1
1582293950356726,-1,-2,-1,-3,0,-2,0,-2
1582293950356726,0,-2,-3,0,-1,-3,-1,0
1582293950369754,0,0,-1,1,-2,0,0,-1
1582293950369754,0,-1,-1,0,-3,0,-3,-2
1582293950376875,-1,-2,-2,1,-2,-1,1,-2
1582293950376875,1,2,1,-1,1,1,2,-2
1582293950392817,-1,-2,-2,-1,-1,-3,-2,0
1582293950392817,1,1,-1,-1,-1,-1,-1,0
1582293950394689,-2,-1,-2,-1,-2,-2,-2,-1
1582293950394689,-1,-1,-1,-2,-1,1,-1,0
1582293950415773,-2,-1,0,-1,0,-1,0,-1
1582293950415773,-2,-2,-2,-1,-1,-1,-1,-2
1582293950416930,-1,-2,-1,-2,-1,-1,0,2
1582293950416930,-2,-1,-1,0,0,2,-2,1
1582293950437745,0,-3,-1,-2,-3,0,-1,0
1582293950437745,0,0,-1,-2,-1,-2,-1,0
1582293950439505,0,0,-1,-1,-2,0,0,-1
1582293950439505,1,-1,-1,-1,-1,1,1,3
1582293950452699,-11,-3,0,-1,0,-1,-2,-7
1582293950452699,1,0,0,0,0,-2,0,0
1582293950454467,0,-2,-1,0,-2,-2,-1,-2
1582293950454467,2,-2,0,1,0,-1,1,-1
1582293950475647,-1,-1,-1,-1,0,-1,2,-1
1582293950475647,0,-1,0,0,-1,-1,0,-1
1582293950477034,-1,-1,0,-1,-3,-2,-3,-3
1582293950477034,1,0,1,-1,-1,-1,0,0
1582293950489563,0,-1,-1,1,2,1,1,0
1582293950489563,-1,-2,-1,1,-1,1,-2,-1
1582293950496546,0,-2,0,0,-1,0,0,-2
1582293950496546,-3,-1,-1,0,0,0,0,-2
1582293950520335,-1,1,-1,-1,-2,-3,-2,-1
1582293950520335,-1,1,-1,-2,-1,-1,-2,-1
1582293950522479,-3,1,-1,0,-2,-1,-1,2
1582293950522479,-2,-2,-4,-3,0,-2,1,-1
1582293950535445,0,-1,-1,-2,-2,-4,-5,-3
1582293950535445,-1,0,-3,0,0,0,0,-1
1582293950537245,-1,-3,-1,-1,-1,1,-1,0
1582293950537245,-2,-2,-1,-1,-3,0,-1,0
1582293950550436,1,0,-2,-1,0,-1,-4,-1
1582293950550436,-1,-1,-1,-2,-1,1,0,0
1582293950556388,-1,0,1,-1,-1,1,-3,-1
1582293950556388,-1,1,-2,0,0,-1,-3,-2
1582293950573330,1,-2,-2,0,-3,-1,0,-1
1582293950573330,-3,0,0,-2,-1,0,0,-2
1582293950574615,-2,-1,0,-2,1,-1,0,-1
1582293950574615,1,0,1,1,-2,-1,-1,0
1582293950595148,2,-1,0,0,1,2,-1,2
1582293950595148,-2,-2,-2,-2,-2,-3,0,-2
1582293950597090,-1,-1,-3,-1,-2,-2,0,-1
1582293950597090,1,1,0,0,-2,0,-3,0
1582293950610197,1,0,0,-1,0,-2,1,-2
1582293950610197,-7,-3,-1,0,-1,0,-2,-6
1582293950616466,0,1,-1,-1,-1,-2,-1,0
1582293950616466,-1,-1,-1,0,-1,-1,-3,0
1582293950633188,0,1,-2,-2,-2,-4,-3,0
1582293950633188,0,0,-1,-2,0,-2,0,2
1582293950634420,-2,0,0,0,1,0,0,-2
1582293950634420,-1,-2,-2,0,0,2,1,-2
1582293950654984,-2,-1,-1,-1,0,-2,-1,-3
1582293950654984,0,-1,-1,1,-1,-2,-1,-1
1582293950656923,-1,-2,-3,-2,-2,-3,-2,-1
1582293950656923,-2,-1,1,-1,-1,-1,-2,0
1582293950669121,-2,-2,0,-1,-1,0,1,-1
1582293950669121,-1,-3,-2,0,-2,-2,-2,-1
1582293950677874,0,-1,0,0,-1,-1,-2,0
1582293950677874,-2,-1,-3,-3,-2,-3,-3,-1
1582293950693020,0,-1,-2,0,-1,0,-2,-3
1582293950693020,0,-1,-1,0,-1,0,-1,0
1582293950694831,-1,-2,-1,-2,1,-1,0,-1
1582293950694831,-1,-2,0,1,1,1,4,2
1582293950715829,-1,0,-1,-1,0,0,0,-1
1582293950715829,6,2,1,0,-1,0,-2,1
1582293950717260,-8,-4,-1,0,-2,0,-2,-3
1582293950717260,0,1,-2,-1,-1,-2,1,-2
1582293950728794,0,1,-1,-3,0,1,1,2
1582293950728794,1,1,0,-1,-1,0,-1,-1
1582293950737758,4,-1,0,-1,-2,-1,0,-1
