timestamp,x,y,z
1582293935129137,7.5625,0.9375,11.875
1582293935144098,3.375,-2.3125,11.625
1582293935167035,1.5625,-3.5625,9.3125
1582293935189973,0.8125,-3.6875,6.625
1582293935204934,0.8125,-3.9375,4.125
1582293935226876,1.1875,-5,2.5
1582293935250814,0.8125,-6.0625,0.3125
1582293935265769,-0.75,-5.6875,-2.625
1582293935326649,-0.9375,-4.5625,-3.875
1582293935327606,-2,-4.3125,-4.5625
1582293935333866,-3.1875,-4.4375,-5.25
1582293935347740,-3.75,-4.3125,-4.9375
1582293935371487,-3.4375,-3.8125,-2.9375
1582293935385661,-1.625,-3.625,-1.9375
1582293935429373,0.0625,-4.5625,-1.6875
1582293935439345,1,-5.375,-0.1875
1582293935445292,2.125,-6.3125,0.9375
1582293935467268,2.875,-7.5,0.875
1582293935483189,2.9375,-8.8125,1.4375
1582293935513282,1.875,-9.75,1.8125
1582293935529070,-1.0625,-11,1.6875
1582293935551223,-2.9375,-11.3125,2.3125
1582293935580073,-1.5625,-10.8125,2.625
1582293935587916,-0.625,-9.375,1.875
1582293935611210,-0.625,-8.9375,0.6875
1582293935633847,-2.3125,-8.3125,-0.25
1582293935648089,2.4375,-6.3125,0.625
1582293935670888,-5.625,-5.5,-5.3125
1582293935693636,-7.25,-4.25,-5.5
1582293935707589,-8,-3,-4.8125
1582293935731552,-9.375,-1.625,-7.6875
1582293935753472,-7.0625,0.125,-8.3125
1582293935768426,-6.8125,1.5,-9.375
1582293935791366,-7.375,2.1875,-10.75
1582293935813735,-8.9375,2.5625,-11.4375
1582293935828268,-9.5625,3,-11.5
1582293935851262,-8.1875,3.1875,-11.1875
1582293935873381,-5.6875,2.3125,-11.6875
1582293935896141,-4.1875,1.75,-10.5625
1582293935919030,-2.875,1.375,-9.0625
1582293935940964,-2.25,0.375,-8.125
1582293935955926,-1.8125,-0.5625,-6.75
1582293935970884,-0.625,-0.75,-5.4375
1582293935993875,1.1875,-1.25,-4.5625
1582293936014994,3.5625,-3.625,-2.625
1582293936030921,1.3125,-3.1875,-5.5625
1582293936053881,-0.5625,-2.8125,-4
1582293936074929,3.8125,-1.75,-5.8125
1582293936091567,2.3125,-0.75,-5.625
1582293936113704,2.3125,-0.125,-5.0625
1582293936134653,3.375,-0.0625,-5.375
1582293936151410,3.5625,-0.5625,-4.625
1582293936173912,0.75,-0.5625,-3.1875
1582293936196283,2.25,-2.25,-1.8125
1582293936211246,3.8125,-4.3125,-1.875
1582293936233344,5.5625,-5.875,-1
1582293936255173,9.1875,-8.4375,2.5
1582293936271250,15.5,-11.5,7.125
1582293936294029,19.25,-12.9375,13.375
1582293936314967,20,-15.8125,19.8125
1582293936330926,22.4375,-16.9375,26.625
1582293936353916,16.625,-19.6875,29.625
1582293936374868,7.375,-22.9375,31.125
1582293936390761,6.4375,-27.375,32.625
1582293936419889,-2.625,-28.1875,30.625
1582293936436641,-7.5625,-28.875,28.9375
1582293936458862,-6.1875,-29.75,26.625
1582293936479995,-4.75,-28.25,20
1582293936496480,12.875,-25.4375,16.25
1582293936518422,19.875,-22.625,10.375
1582293936540181,24.4375,-17.125,5.3125
1582293936556534,21.8125,-10.6875,-0.125
1582293936578426,12.3125,-4.9375,-5.125
1582293936600283,1.8125,0.125,-9.125
1582293936616219,-3.75,4.25,-11.875
1582293936639309,-12.3125,7.1875,-16.875
1582293936660224,-21.9375,10.125,-18
1582293936675058,-24.9375,10.5,-17.6875
1582293936698958,-34.25,8.125,-19.375
1582293936719930,-31.875,10,-22.3125
1582293936735838,-25.5,11.75,-23.25
1582293936758785,-18.75,10.8125,-20.75
1582293936779777,-13.5625,9.0625,-16.1875
1582293936795679,-8.5625,8.3125,-12.5
1582293936801836,-4.5,7.875,-8.875
1582293936831631,-1.3125,6.5,-4.6875
1582293936846548,2.3125,4.5,-0.4375
1582293936863242,3.375,3.0625,3.4375
1582293936884448,4.5,1.875,6
1582293936909420,7.8125,0.625,7.625
1582293936921341,10.0625,-1.25,8.875
1582293936951393,10.25,-2.875,11.1875
1582293936966222,10.3125,-4.625,14.0625
1582293936981391,14.25,-8.25,18.125
1582293937004174,19.25,-12.125,23.3125
1582293937026115,25.0625,-15.25,31.125
1582293937043451,29.4375,-17.5,39.0625
1582293937064167,35.125,-19.375,49.75
1582293937086898,46.3125,-24.0625,50.75
1582293937101859,43.625,-22.25,52.9375
1582293937123807,30.8125,-20,56.875
1582293937146882,15.125,-22.375,60.625
1582293937161859,4.125,-22.6875,60.9375
1582293937183649,8.4375,-21.75,62.1875
1582293937206589,13.6875,-21.625,59.0625
1582293937221690,19.75,-21.375,54.8125
1582293937244537,21.9375,-21,49.0625
1582293937266420,23.25,-18.875,45.6875
1582293937289366,20.125,-17.625,39.6875
1582293937304539,17.6875,-15.1875,33
1582293937327256,10.375,-9.4375,28.375
1582293937341288,5.125,-3.25,23.1875
1582293937364198,2.4375,1.375,15.9375
1582293937386348,-2,4.1875,11
1582293937401097,-7.875,2.6875,8.5
1582293937424251,-11,0.125,6.4375
1582293937441949,-8.8125,-4.5,3.5625
1582293937463055,-2.25,-9.1875,2.3125
1582293937483845,4.125,-12.8125,1.0625
1582293937507781,5.0625,-15.25,1
1582293937523418,4.1875,-18.875,3.75
1582293937543679,6.25,-22.375,6.1875
1582293937566616,12.375,-22.625,10
1582293937582935,11.6875,-21.6875,11.25
1582293937604578,16.125,-17.0625,16.3125
1582293937626593,21.875,-19.1875,20.1875
1582293937643413,18.6875,-15.8125,21.125
1582293937664685,17.3125,-15.375,24.6875
1582293937686484,18.75,-14.125,27.375
1582293937703250,21.25,-13.8125,27.125
1582293937724258,20.0625,-15.5,28.3125
1582293937749823,15.25,-17.125,29.0625
1582293937763090,11.4375,-17.625,27.75
1582293937784228,9.5,-17.5625,31.6875
1582293937802233,9.5625,-18.4375,33
1582293937823139,12.125,-19.8125,32.625
1582293937844073,14.375,-20,32.5625
1582293937861828,13.625,-20.3125,32.1875
1582293937884769,12,-18.125,32.125
1582293937904193,11.125,-17.125,31.875
1582293937921872,11.3125,-16.6875,29.9375
1582293937944837,11.0625,-15.0625,31.0625
1582293937964551,15.875,-14.375,29.9375
1582293937982369,20.4375,-13.75,28.375
1582293938004444,22.6875,-12.8125,26.4375
1582293938024389,21.9375,-13.875,27.4375
1582293938042364,19.875,-15.4375,24.375
1582293938065290,16.125,-17.75,20.6875
1582293938084563,12.5,-20.125,19.5
1582293938102236,10.0625,-23.75,17.0625
1582293938124123,9.1875,-24.5625,13.875
1582293938144462,5.375,-22.1875,12.625
1582293938162093,6.25,-20.875,10.8125
1582293938191944,7.625,-18.625,6.5
1582293938204126,5.875,-16.4375,4.875
1582293938222363,6.0625,-12.5,2.9375
1582293938244801,4.1875,-7,-1.625
1582293938264148,-5.25,-0.875,-4.5
1582293938281703,-18,5.75,-5
1582293938305024,-27.375,9.5625,-6.5
1582293938324592,-32.8125,10.75,-8.4375
1582293938341543,-34.625,13.1875,-10.25
1582293938364482,-33.875,15.4375,-12.5
1582293938384629,-20.8125,16.875,-12.125
1582293938402378,-23.25,17.5,-15.0625
1582293938423498,-21.3125,17.875,-16.5625
1582293938444746,-22.8125,18.6875,-13.1875
1582293938461277,-22.3125,16.0625,-8.125
1582293938483382,-18.625,13.9375,-5.9375
1582293938505262,-15.8125,13.125,-3.625
1582293938521107,-11.75,12.75,-1
1582293938544001,-7,11.5625,1.5625
1582293938565163,-1.9375,9.9375,3.5
1582293938581899,2.1875,8.25,4.5
1582293938603897,5.25,6.0625,6
1582293938625048,5.0625,5.375,5.75
1582293938640742,3.8125,3.75,6.4375
1582293938663749,4.125,1.625,5.125
1582293938685143,4.625,0.1875,3.3125
1582293938701637,3.0625,-1.5,2.5625
1582293938723686,0.8125,-3.25,1.8125
1582293938744617,-0.25,-3.9375,0.625
1582293938761419,-0.625,-4,-0.4375
1582293938783609,-1.8125,-3.75,-0.8125
1582293938806309,-3.0625,-3.6875,-1.875
1582293938821310,-3.5,-3.375,-2
1582293938843279,-2.5625,-2.4375,-2.375
1582293938866143,-2.3125,-1.125,-2.875
1582293938881103,-2.875,0.375,-2.6875
1582293938904037,-2.5,1.3125,-2.3125
1582293938925991,-2,2.3125,-1.5625
1582293938949010,-1.9375,3,-1.125
1582293938963877,-1.875,3.0625,-0.1875
1582293938985932,-0.6875,3.125,0.3125
1582293939000833,-0.1875,2.4375,0.5625
1582293939029702,0.4375,1.5625,0.75
1582293939052941,0.9375,0.75,0.8125
1582293939060618,1.4375,0.1875,0.75
1582293939083562,1.75,-0.125,1
1582293939112545,1.75,-0.4375,1.125
1582293939120515,1.625,-0.5625,1
1582293939143397,1.25,-0.5625,0.8125
1582293939166335,1,-0.9375,0.4375
1582293939187283,0.875,-1.1875,0
1582293939203649,0.5625,-1.0625,-0.25
1582293939226183,0.5,-0.6875,-0.3125
1582293939240138,0.4375,-0.25,-0.6875
1582293939264075,0.0625,-0.0625,-1.0625
1582293939287014,-0.8125,0,-1.0625
1582293939307154,-1,-0.0625,-1.375
1582293939323918,-0.75,0,-1.25
1582293939346064,-0.5,-0.125,-0.75
1582293939367066,-0.125,0,-0.5625
1582293939384065,0.25,-0.1875,-0.4375
1582293939412679,0.8125,-0.4375,0.0625
1582293939427861,0.875,-0.625,0.1875
1582293939443593,1,-0.625,0.3125
1582293939466532,1,-0.6875,0.8125
1582293939487671,1.125,-0.625,0.6875
1582293939503483,1.1875,-0.625,0.875
1582293939526372,1.0625,-0.1875,1
1582293939547375,1,0.1875,0.6875
1582293939563447,1.0625,0.25,0.875
1582293939586278,1,0.3125,0.8125
1582293939607220,0.75,0.0625,0.625
1582293939624110,0.4375,-0.3125,0.5
1582293939646353,0.625,-0.5625,0.3125
1582293939667202,1,-0.5625,0.125
1582293939682998,0.9375,-0.4375,0.0625
1582293939706050,0.875,-0.1875,-0.0625
1582293939728833,0.5625,0,-0.125
1582293939743809,0.375,0.25,-0.125
1582293939765793,0.125,0.5625,0.0625
1582293939788816,0.1875,0.5625,0.0625
1582293939803635,0.375,0.4375,-0.0625
1582293939826569,0.4375,0.4375,0.0625
1582293939848515,0.5,0.0625,0.25
1582293939862879,0.625,0.1875,0.4375
1582293939886460,0.8125,0.1875,0.5625
1582293939908569,0.5,0.0625,0.75
1582293939923312,0.25,0.0625,0.6875
1582293939946299,0.3125,0.3125,0.375
1582293939968374,0.3125,0.3125,0
1582293939983406,-0.125,0.25,-0.125
1582293940006098,-0.25,-0.125,-0.3125
1582293940029027,-0.3125,-0.125,-0.25
1582293940042990,-0.0625,-0.3125,-0.25
1582293940065931,-0.0625,-0.375,-0.3125
1582293940088868,0.375,-0.4375,0.25
1582293940102831,0.4375,-0.1875,0.5625
1582293940125810,0.6875,-0.4375,0.8125
1582293940148762,1.6875,-0.4375,1.25
1582293940162868,2.375,0.4375,1.4375
1582293940186532,2.0625,0.5,1.5
1582293940208550,1.625,-0.0625,1.5
1582293940222685,1.375,-0.1875,1
1582293940246498,0,0.3125,0.6875
1582293940268389,-0.75,0.125,0.1875
1582293940289495,1.125,-0.125,-0.625
1582293940306440,1.0625,0.125,-1
1582293940328289,-1,0.125,-0.5
1582293940349740,-1.25,-0.0625,-0.4375
1582293940366131,-0.25,-0.5,-0.6875
1582293940389065,0.125,-0.5,-0.4375
1582293940411006,0.3125,-0.3125,0.125
1582293940425970,0.5625,-0.3125,0.1875
1582293940448903,0.6875,-0.1875,0.4375
1582293940470236,0.6875,-0.1875,0.3125
1582293940485806,0.8125,-0.1875,0.3125
1582293940508745,0.3125,-0.3125,0.375
1582293940529745,0,0.0625,0.3125
1582293940545848,-0.25,0.375,0.1875
1582293940568962,0.0625,0.125,-0.125
1582293940589768,0,-0.1875,-0.3125
1582293940606482,-0.5625,-0.0625,-0.4375
1582293940628422,-1.0625,0,-0.3125
1582293940649374,-0.4375,0,-0.25
1582293940666378,-0.125,0,-0.5
1582293940688322,-0.375,-0.25,-0.375
1582293940711207,-0.75,-0.4375,-0.5
1582293940726163,-0.625,-0.3125,-0.8125
1582293940748414,-0.4375,-0.1875,-0.625
1582293940771057,-0.375,-0.125,-0.6875
1582293940792139,-0.75,-0.25,-0.8125
1582293940808943,-0.875,-0.1875,-0.8125
1582293940831121,-0.625,0,-0.875
1582293940853820,-0.75,0.125,-1.3125
1582293940868834,-1.3125,0,-2.75
1582293940890721,-2.0625,-1.3125,-5.1875
1582293940905695,-4.4375,-1.875,-7.8125
1582293940928672,-8.5,-3.5,-13.8125
1582293940951561,-12.3125,-9.3125,-21.0625
1582293940972556,-15.625,-15.75,-27.5
1582293940988472,-13.9375,-20.625,-37.875
1582293941011403,-9.75,-21.1875,-40.625
1582293941032501,-10.1875,-16.8125,-38.5625
1582293941048561,-13.5,-10.9375,-32.875
1582293941071297,-35,-8.0625,-23.125
1582293941092372,-44.9375,-8.5625,-21.375
1582293941116416,-52.6875,-4.5625,-20.8125
1582293941131343,-44.625,-2.75,-11.4375
1582293941152228,-37.8125,-8.1875,-6.875
1582293941169028,-23.25,-10.625,-2.6875
1582293941191091,-4.0625,-17.625,-0.5625
1582293941212005,16.875,-22.25,2.75
1582293941228818,33.1875,-25.6875,5.9375
1582293941250821,42.125,-27.5625,10.0625
1582293941272064,38.375,-23.75,10.625
1582293941288884,19.8125,-18.125,15.3125
1582293941310838,6.1875,-13.1875,17.125
1582293941332778,2.9375,-7.1875,13.5625
1582293941348679,4.5625,-1.3125,11
1582293941370613,3.0625,2.3125,6.8125
1582293941392744,-0.3125,6.4375,4.1875
1582293941408561,-3.5625,8.4375,1.5
1582293941431459,-4.75,8.9375,0
1582293941452592,-5.8125,8.9375,-0.1875
1582293941468574,-6.4375,9.25,0.5
1582293941491346,-5.1875,9.25,1.875
1582293941512447,-3,8.75,2.875
1582293941528349,-1.1875,6.8125,3.75
1582293941551300,1.125,5.0625,5.1875
1582293941572449,3.25,3.9375,6.375
1582293941588210,6.1875,2.9375,7.9375
1582293941611131,7.8125,2.0625,9.625
1582293941634068,6.875,1.6875,10.25
1582293941649026,4.5625,2.0625,12.25
1582293941671347,0.75,2.6875,12.5625
1582293941693904,0.125,2.0625,11.375
1582293941708866,2.125,3.75,9.125
1582293941731094,4.5,5.75,7.5
1582293941753796,8.375,5.0625,6.5625
1582293941768714,12.875,5.25,4.75
1582293941791649,8.3125,3.375,4.3125
1582293941796632,5.625,1.1875,4.8125
1582293941819788,2.75,-1.25,4.3125
1582293941842692,4.1875,-1.9375,2.3125
1582293941856591,3.9375,-3.5625,1.1875
1582293941882401,2.1875,-5.0625,-0.125
1582293941894574,1.375,-5.4375,-0.75
1582293941916461,0.875,-5.5625,-1.1875
1582293941956207,0.8125,-6,-1.5625
1582293941958203,0.8125,-6.3125,-2.0625
1582293941977205,0.875,-6.8125,-2
1582293941999292,0.9375,-6.875,-1.9375
1582293942014255,1,-7.3125,-2
1582293942036988,1,-7.375,-1.875
1582293942059129,1.3125,-7.125,-1.375
1582293942076880,2.375,-6.8125,-1.25
1582293942104807,3.25,-7,-0.5625
1582293942119766,3.75,-7,0.375
1582293942134257,4.0625,-6.5,0.9375
1582293942156714,4.9375,-6,1.75
1582293942178609,6.125,-6.5,2.25
1582293942194629,6.75,-7.0625,2.375
1582293942217048,6.875,-7.3125,2.375
1582293942239454,6.8125,-7.375,3.1875
1582293942255413,6.6875,-7.5,3.4375
1582293942276865,6.5,-7.0625,3.1875
1582293942299512,5.875,-6.375,2.75
1582293942317294,4,-5.25,2.1875
1582293942336651,2.5,-3.5,1.25
1582293942359326,0.625,-1.5,0.625
1582293942375144,-1.0625,0.125,0.625
1582293942397084,-1.6875,1.5,-0.5625
1582293942419192,-3.25,3,-0.5
1582293942435919,-3.6875,3.75,-0.5625
1582293942456862,-3.5,4.25,-0.75
1582293942478948,-2.875,4.4375,-0.4375
1582293942495759,-2.1875,4.0625,-0.25
1582293942516858,-1.625,3.6875,-0.125
1582293942538967,-0.75,3.25,0
1582293942555857,0.1875,2.5625,0.4375
1582293942576742,1,2.125,0.4375
1582293942599586,0.9375,2,0.3125
1582293942616849,1,1.9375,0.6875
1582293942636834,0.625,1.8125,0.25
1582293942659325,-0.1875,1.8125,0.125
1582293942677275,-0.4375,1.375,-0.375
1582293942697256,-0.5,1.1875,-0.875
1582293942719307,-0.875,0.875,-1.125
1582293942743097,-1.3125,0.5,-1
1582293942756078,-0.9375,0.375,-0.5625
1582293942779237,0.125,0.5625,-0.6875
1582293942797386,0.25,0.8125,-0.5
1582293942816904,0.4375,0.5625,-0.0625
1582293942840836,0.1875,0.3125,0.1875
1582293942856804,0.5,0.3125,0.375
1582293942876941,0.625,0.1875,0.375
1582293942894691,0.6875,-0.0625,0.0625
1582293942916755,0.5625,-0.0625,0
1582293942936805,0.5,0.0625,0
1582293942954531,0.4375,0,0.0625
1582293942976484,0.25,-0.125,-0.1875
1582293942996840,0.0625,-0.1875,-0.5625
1582293943019418,-0.75,0,-0.6875
1582293943037322,-1,-0.1875,-0.4375
1582293943056371,-0.375,-0.25,-0.75
1582293943074214,-0.5625,0,-0.75
1582293943103186,-0.3125,-0.125,-0.5
1582293943117158,-0.5625,-0.375,-0.4375
1582293943134906,-0.0625,-0.4375,-0.3125
1582293943156995,0.0625,0.0625,-0.3125
1582293943178118,-0.0625,0.25,-0.125
1582293943194123,0,0.5625,0.125
1582293943216989,0.3125,0.875,0.125
1582293943238121,0.1875,0.625,0.125
1582293943254740,0.25,0.6875,0.25
1582293943277263,0.1875,0.5625,0.0625
1582293943297986,0.125,0.0625,0
1582293943314570,-0.125,-0.4375,0.25
1582293943336509,0.4375,-0.625,-0.25
1582293943357814,0.375,-0.625,-0.1875
1582293943374409,-0.125,-0.75,-0.0625
1582293943397362,-0.4375,-0.5,-0.125
1582293943418334,0,-0.5,-0.0625
1582293943433654,0.3125,-0.375,-0.0625
1582293943456190,0.3125,-0.25,-0.25
1582293943477337,0.0625,0,-0.0625
1582293943494091,0.0625,0.125,-0.125
1582293943516034,-0.125,0.125,-0.1875
1582293943538967,0,-0.125,-0.1875
1582293943553927,0,0,0
1582293943576125,0,-0.0625,0.125
1582293943598871,0.3125,0,0.125
1582293943612776,0.5625,-0.1875,0.0625
1582293943635905,0.3125,-0.625,0.0625
1582293943658667,0,-0.875,0
1582293943673607,0.1875,-0.6875,0.1875
1582293943696548,1.125,-0.75,0.5625
1582293943718510,1.8125,-0.75,0.5625
1582293943733448,1.875,-1,0.4375
1582293943756393,1,-1.5,0.3125
1582293943778358,0.4375,-1.75,0.375
1582293943793288,-0.125,-1.5,-0.25
1582293943816279,0.25,-0.875,0.1875
1582293943838177,0.8125,-1.125,-0.3125
1582293943853177,-0.0625,-0.9375,-0.5
1582293943876071,-0.4375,-0.625,0
1582293943905991,-0.0625,-0.125,-0.25
1582293943913024,-0.125,0.1875,-0.125
1582293943942083,-0.25,0.375,-0.125
1582293943958845,-0.5625,0.75,0
1582293943972806,0.4375,0,0.125
1582293943995745,0.6875,-0.1875,-0.25
1582293944018684,0.5625,0,0.375
1582293944039639,0.5625,0,0.125
1582293944056584,0.5,-0.125,0.3125
1582293944078530,0.5,-0.1875,0.125
1582293944100120,0.375,0.125,0.1875
1582293944116422,0.625,-0.1875,0.125
1582293944138617,0.625,-0.375,0.0625
1582293944167284,-0.0625,-0.1875,0.125
1582293944176342,-0.1875,-0.125,0.1875
1582293944198204,0.125,-0.0625,0.3125
1582293944221251,0.375,-0.0625,0.125
1582293944236370,0.25,0.25,0.1875
1582293944259040,0.3125,-0.0625,0.1875
1582293944280040,-0.0625,0.0625,0.25
1582293944295948,0.5,0,0.4375
1582293944318888,0.9375,0.0625,0.3125
1582293944339823,0.5,-0.125,0.25
1582293944355892,-0.1875,-0.125,0.125
1582293944378723,-0.375,-0.375,-0.375
1582293944399710,-0.5625,-0.375,-0.375
1582293944415877,-0.25,-0.4375,-0.5
1582293944438703,0.0625,-0.4375,-0.6875
1582293944461500,0.4375,-0.5625,-0.5625
1582293944476505,0.375,-0.5,-0.8125
1582293944498400,0.1875,-0.125,-0.875
1582293944521340,-0.1875,0.125,-1.125
1582293944536300,-0.8125,0.0625,-1.1875
1582293944558480,-0.9375,-0.25,-1.0625
1582293944581183,-0.75,-0.5,-1.125
1582293944596140,-0.875,-0.8125,-0.875
1582293944618194,-0.8125,-0.875,-0.8125
1582293944641022,-0.5625,-0.75,-0.6875
1582293944655979,-0.1875,-0.6875,-0.375
1582293944678918,0.25,-0.6875,0
1582293944700865,0.4375,-0.625,0.0625
1582293944715817,0.8125,-0.75,0.6875
1582293944738759,1.3125,-0.875,0.875
1582293944761386,1.5625,-1.125,0.625
1582293944775660,1.5625,-1.25,0.6875
1582293944798598,1.125,-1.0625,0.4375
1582293944820740,0.3125,-1.25,0.3125
1582293944835524,-0.25,-1.3125,0.1875
1582293944858437,-0.25,-0.9375,-0.25
1582293944881382,-0.25,-0.5625,-0.375
1582293944902372,-0.4375,-0.1875,-0.25
1582293944918279,-1.125,0.375,-0.375
1582293944941362,-1.625,0.5625,-0.625
1582293944962515,-1.625,0.0625,-0.6875
1582293944978260,-1.5,-0.125,-0.8125
1582293945001061,-1.1875,-0.1875,-0.75
1582293945022014,-0.6875,0,-0.5
1582293945039069,-0.3125,0.4375,-0.25
1582293945060908,0.0625,0.625,-0.0625
1582293945082049,0.1875,0.5,0.125
1582293945099028,0.1875,0.375,0.125
1582293945120799,-0.1875,0.25,0.0625
1582293945142681,-0.25,0,-0.125
1582293945158635,0.125,0.0625,-0.0625
1582293945180791,-0.1875,0.125,-0.3125
1582293945202566,-0.4375,0.25,-0.0625
1582293945218480,-0.3125,0.375,0.125
1582293945241413,0.0625,0.625,0.375
1582293945262551,0.4375,1,0.375
1582293945278317,0.5625,0.8125,0.25
1582293945301310,0.875,0.3125,0.125
1582293945322201,0.9375,0.5625,0.1875
1582293945338168,1.1875,0.5625,0.5
1582293945361307,1.5,0.5,0.3125
1582293945382041,1,0.6875,0.375
1582293945398054,0.25,0.875,0.25
1582293945421223,0.25,0.75,0.1875
1582293945443871,0.25,0.875,-0.0625
1582293945458832,-0.0625,1.125,-0.125
1582293945480834,-0.375,0.9375,0.125
1582293945503765,-0.1875,0.6875,0.0625
1582293945532934,-0.125,0.75,0.1875
1582293945540845,0.0625,0.4375,0.0625
1582293945563855,0.1875,0.125,0.0625
1582293945577563,0.25,0.3125,0.125
1582293945601580,0.5625,0.3125,0.125
1582293945623390,0.4375,0.3125,0.375
1582293945638363,-0.25,0.4375,0.5
1582293945661296,-0.3125,0.1875,0.375
1582293945683446,-0.1875,0.125,0.1875
1582293945698193,-0.1875,0.1875,0.0625
1582293945721184,-0.4375,0.0625,0.25
1582293945744069,-0.6875,-0.0625,0.25
1582293945765029,-0.375,0,0.3125
1582293945780977,0,0.5625,0.25
1582293945803983,0.0625,0.625,0.3125
1582293945817871,0,0.4375,0.375
1582293945840850,-0.375,0.1875,0.25
1582293945863798,-0.375,0.125,0.0625
1582293945877711,0.0625,0.125,0.125
1582293945900855,-0.0625,0.25,0.125
1582293945923643,-0.1875,0.5,0
1582293945944591,-0.625,0.1875,-0.125
1582293945967660,-0.8125,0.125,-0.3125
1582293945983631,-0.6875,0.0625,-0.5625
1582293946004417,-0.3125,0.0625,-0.5625
1582293946021336,-0.25,-0.0625,-0.625
1582293946043496,0.0625,-0.1875,-0.5
1582293946065268,0.0625,-0.375,-0.3125
1582293946081173,0.375,-0.375,-0.125
1582293946110251,0.375,-0.4375,-0.3125
1582293946125204,0.0625,-0.5,-0.1875
1582293946141012,-0.0625,-0.3125,-0.1875
1582293946164002,0.125,0.125,-0.3125
1582293946185087,-0.0625,0.375,-0.1875
1582293946200847,-0.25,0.3125,-0.1875
1582293946223784,-0.1875,0.3125,-0.25
1582293946244784,-0.5,0.1875,-0.25
1582293946260854,-0.25,0.25,-0.125
1582293946283681,-0.1875,0.125,-0.25
1582293946304880,-0.125,-0.3125,-0.3125
1582293946321536,-0.25,-0.1875,-0.25
1582293946343470,-0.125,0.0625,-0.625
1582293946366403,-0.125,-0.125,-0.125
1582293946388474,-0.375,0,-0.1875
1582293946403305,-0.5,-0.0625,-0.25
1582293946426253,-0.3125,-0.1875,-0.25
1582293946441208,0.125,-0.125,-0.5625
1582293946463387,-0.4375,0.0625,-0.5
1582293946486418,-0.75,-0.0625,-0.25
1582293946501105,-0.75,-0.125,-0.4375
1582293946523983,-0.5,0.0625,-0.375
1582293946545924,0,0.25,-0.1875
1582293946560894,-0.0625,0.125,-0.3125
1582293946583834,-0.75,0.25,-0.1875
1582293946605761,-0.875,0.125,-0.4375
1582293946628762,-0.5,-0.0625,-0.5
1582293946643663,-0.3125,-0.25,-0.4375
1582293946665609,-0.375,-0.25,-0.375
1582293946680603,-0.25,-0.0625,-0.1875
1582293946703731,-0.0625,0.0625,-0.125
1582293946726440,0.125,0,-0.4375
1582293946740413,-0.1875,-0.4375,-0.5
1582293946763390,-0.75,-0.5,-0.625
1582293946786330,-1,-0.125,-0.8125
1582293946800253,-1,0,-0.8125
1582293946808227,-1,-0.125,-0.8125
1582293946829447,-1.125,-0.4375,-1.125
1582293946851310,-1.5,-0.6875,-1
1582293946868117,-1.5,-0.5,-0.875
1582293946889003,-0.875,-0.1875,-0.6875
1582293946911945,-0.4375,0.0625,-0.5
1582293946927968,-0.5625,-0.0625,-0.1875
1582293946949042,-0.3125,-0.3125,-0.375
1582293946971866,-0.0625,-0.5,-0.3125
1582293946988038,-0.0625,-0.625,0.25
1582293947008903,0.375,-0.4375,0
1582293947031828,0.3125,-0.25,0.0625
1582293947047584,0.1875,-0.5625,-0.3125
1582293947071944,-0.25,-0.875,-0.75
1582293947091610,-1,-0.75,-0.8125
1582293947107908,-1.0625,-0.5625,-0.875
1582293947129596,-0.5625,-0.1875,-0.75
1582293947151534,-1,-0.0625,-0.75
1582293947168312,-1.25,-0.125,-0.8125
1582293947189567,-1.375,-0.25,-0.8125
1582293947211145,-1.1875,-0.625,-1.0625
1582293947228098,-0.875,-0.625,-1.125
1582293947249044,-0.9375,-0.3125,-1
1582293947271806,-0.625,-0.3125,-0.8125
1582293947288164,-0.4375,-0.0625,-0.6875
1582293947309122,-0.3125,-0.1875,-0.625
1582293947332062,-0.3125,-0.375,-0.4375
1582293947356893,-0.0625,-0.3125,-0.3125
1582293947368954,0.1875,-0.3125,-0.3125
1582293947394661,0.3125,-0.5,-0.5625
1582293947409664,0.1875,-0.5625,-0.625
1582293947428619,0,-0.5,-0.75
1582293947459537,-0.125,-0.3125,-0.6875
1582293947474487,-0.25,-0.125,-0.75
1582293947489406,-0.3125,0.0625,-0.875
1582293947511701,-0.75,0.0625,-0.75
1582293947537279,-0.75,0.125,-0.8125
1582293947549434,-0.3125,0.125,-0.8125
1582293947571449,-0.125,0.25,-0.5625
1582293947589136,-0.5,0.375,-0.5
1582293947609314,-0.4375,0.375,-0.3125
1582293947633087,-0.1875,0.4375,-0.25
1582293947653957,0.125,0.3125,-0.1875
1582293947669115,0.5,0.375,0.0625
1582293947693852,0.5625,0.4375,0.125
1582293947709809,0.5,0.375,0.25
1582293947729102,0.5625,0.25,0.4375
1582293947751924,0.5625,0.3125,0.25
1582293947769647,0.5625,0.375,0.25
1582293947792141,0.625,0.3125,0.0625
1582293947811808,0.3125,-0.125,0
1582293947829486,0.125,-0.0625,-0.125
1582293947849597,0.125,0.0625,-0.1875
1582293947871562,0.25,0.0625,-0.0625
1582293947889328,-0.125,-0.0625,-0.0625
1582293947909501,-0.5625,0.125,0.0625
1582293947931358,-0.125,0,-0.125
1582293947949184,0.1875,0,-0.125
1582293947970187,0.3125,0.0625,0
1582293947991254,0.0625,0.375,0.0625
1582293948009438,-0.0625,0.375,0
1582293948030165,0.1875,0.375,0.125
1582293948059090,0.5,0.375,-0.0625
1582293948069845,0.25,0.5,-0.0625
1582293948090791,-0.5,0.375,0
1582293948111977,-0.5,0.25,-0.1875
1582293948129684,-0.0625,0.125,-0.3125
1582293948150696,-0.0625,-0.125,-0.4375
1582293948171694,-0.125,-0.125,-0.4375
1582293948189526,0,-0.3125,-0.375
1582293948210521,-0.0625,-0.25,-0.1875
1582293948231469,0.1875,-0.1875,-0.25
1582293948249365,0.1875,0,-0.3125
1582293948271308,0.125,0.0625,-0.5
1582293948293247,-0.125,-0.0625,-0.5
1582293948309212,0,-0.125,-0.4375
1582293948332366,-0.0625,0,-0.3125
1582293948351322,0.125,0,-0.1875
1582293948369308,0.375,-0.125,-0.25
1582293948391984,0.4375,-0.3125,-0.375
1582293948406942,0.5,-0.375,-0.3125
1582293948428884,0.4375,-0.0625,-0.125
1582293948450907,0.25,0.125,0
1582293948471908,0.1875,0.375,0
1582293948488723,0.125,0.4375,-0.0625
1582293948510948,0.0625,0.25,-0.125
1582293948532655,0,0,-0.125
1582293948548569,-0.25,0.0625,-0.1875
1582293948571503,-0.3125,-0.3125,-0.25
1582293948585575,-0.125,-0.1875,-0.0625
1582293948608406,0.1875,-0.0625,-0.375
1582293948631398,0.3125,-0.25,-0.25
1582293948645310,-0.25,-0.25,-0.125
1582293948668249,-0.4375,-0.0625,-0.125
1582293948691198,-0.1875,-0.0625,0.0625
1582293948705259,0.125,-0.0625,-0.125
1582293948728473,0.1875,-0.125,-0.25
1582293948751311,-0.375,-0.25,-0.125
1582293948772029,-0.5625,-0.3125,-0.25
1582293948788921,-0.3125,-0.1875,-0.1875
1582293948810862,0.1875,0.125,-0.1875
1582293948831952,0.0625,0.25,-0.125
1582293948848761,-0.4375,0.25,-0.25
1582293948870872,-0.625,0.375,-0.1875
1582293948892693,-0.375,0.1875,-0.375
1582293948908921,-0.1875,0.1875,-0.5
1582293948931542,-0.4375,0.1875,-0.5
1582293948952547,-0.5625,-0.0625,-0.375
1582293948969495,-0.3125,0,-0.1875
1582293948991380,-0.125,0.1875,-0.3125
1582293949012553,-0.0625,0,-0.4375
1582293949028603,-0.25,-0.125,-0.5
1582293949051516,-0.3125,0,-0.5625
1582293949072217,-0.4375,0.1875,-0.5
1582293949088341,-0.3125,0.125,-0.4375
1582293949111418,-0.375,-0.125,-0.5
1582293949132366,-0.4375,-0.125,-0.4375
1582293949148999,-0.125,-0.0625,-0.375
1582293949171067,-0.1875,0,-0.375
1582293949192043,0.0625,0.0625,-0.25
1582293949208798,0.0625,0.125,-0.25
1582293949230783,-0.125,-0.0625,-0.25
1582293949253746,-0.25,-0.3125,-0.3125
1582293949268706,-0.0625,-0.3125,-0.5
1582293949290781,-0.1875,-0.125,-0.4375
1582293949313520,-0.25,-0.3125,-0.625
1582293949328477,-0.4375,-0.125,-0.625
1582293949351451,-0.6875,-0.1875,-0.8125
1582293949373358,-0.625,-0.5625,-0.875
1582293949388318,-0.6875,-0.5625,-0.625
1582293949411257,-0.3125,-0.375,-0.8125
1582293949433247,0,-0.3125,-0.5625
1582293949448159,-0.1875,-0.0625,-0.25
1582293949471097,-0.4375,-0.0625,-0.5625
1582293949494038,-0.625,-0.4375,-0.4375
1582293949508224,-0.5,-0.5625,-0.6875
1582293949531296,-0.5,-0.625,-0.75
1582293949553889,-0.625,-0.4375,-0.75
1582293949567845,-0.6875,-0.125,-0.625
1582293949590778,-0.5625,0,-0.625
1582293949613770,-0.375,0.0625,-0.375
1582293949628006,-0.3125,0.0625,-0.25
1582293949650615,-0.4375,-0.125,-0.1875
1582293949673619,-0.25,-0.125,-0.3125
1582293949687677,-0.25,-0.25,-0.625
1582293949718440,-0.75,-0.6875,-0.6875
1582293949733396,-1.0625,-0.6875,-0.9375
1582293949754348,-1.3125,-0.4375,-0.875
1582293949771293,-1.375,-0.25,-0.875
1582293949793284,-1.25,-0.0625,-1.0625
1582293949815178,-1.0625,-0.125,-0.9375
1582293949831238,-1.125,-0.3125,-0.875
1582293949853128,-0.75,-0.5,-0.9375
1582293949875021,-0.4375,-0.5625,-0.4375
1582293949890977,0.1875,-0.375,-0.1875
1582293949913911,0.5,-0.5,-0.1875
1582293949935050,0.4375,-0.5,-0.0625
1582293949951181,0.25,-0.4375,-0.0625
1582293949973752,0.1875,-0.3125,0
1582293949994752,0.375,0,0.125
1582293950010654,0.125,0,0.0625
1582293950033635,-0.125,0.0625,0.125
1582293950054537,-0.125,0.25,-0.1875
1582293950071490,-0.25,0,0.0625
1582293950093447,0,-0.0625,0.125
1582293950114722,0.25,0,-0.0625
1582293950131331,0.125,-0.3125,-0.1875
1582293950153478,-0.125,-0.0625,-0.25
1582293950176218,0,0.25,-0.375
1582293950191215,0.25,0.5,-0.0625
1582293950213294,0.3125,0.5,0.1875
1582293950236094,0.4375,0.3125,0.1875
1582293950250195,0.8125,-0.1875,0.1875
1582293950273949,1.25,-0.625,0
1582293950295890,1.5,-0.5625,0.1875
1582293950310899,0.9375,-0.6875,0.625
1582293950334045,-0.0625,-0.5,0.75
1582293950355727,-0.5625,0.1875,0.5
1582293950370702,-0.9375,1.1875,0.4375
1582293950393632,-1.375,2.5,0.1875
1582293950415773,-1.75,2.875,0.1875
1582293950438508,-2.0625,3.125,-0.0625
1582293950453484,-2.1875,3.375,-0.3125
1582293950476406,-1.9375,2.875,-0.1875
1582293950490433,-1.0625,2.5625,0.25
1582293950521284,0.0625,1.875,0.4375
1582293950536299,1.0625,1,1.1875
1582293950551206,1.75,0.25,1.3125
1582293950573330,2.5625,-0.25,1.25
1582293950596095,2.5625,-0.5625,0.9375
1582293950610197,1.6875,-0.375,0.625
1582293950633985,0.75,0,0.3125
1582293950656117,0.625,0.3125,-0.5
1582293950676927,0,0.75,-0.75
1582293950693825,-0.625,1,-0.875
1582293950715829,-0.625,1,-0.875
1582293950736764,-0.5,0.9375,-0.875
1582293950753678,-0.0625,0.6875,-0.625
1582293950775620,0.375,0.375,-0.375
1582293950797548,0.5,0.5,0.0625
1582293950813509,0.8125,0.6875,0.3125
1582293950843426,1.3125,1,0.5625
1582293950857385,1.4375,1.125,0.6875
1582293950873529,1.5,0.625,0.5625
1582293950896282,1.625,0.375,0.625
1582293950918585,1.25,0.375,0.5625
1582293950933524,1.1875,0.3125,0.625
1582293950956357,1,0.3125,0.625
1582293950977070,0.4375,0.375,0.3125
1582293950994023,0.0625,0.625,0.0625
1582293951015968,0.1875,0.75,-0.25
1582293951037218,0.5,0.6875,-0.4375
1582293951054036,0.25,0.5625,-0.5625
1582293951075803,-0.3125,0.5625,-0.5625
1582293951097746,-0.1875,0.8125,-0.75
1582293951113758,0.1875,1.125,-1.0625
1582293951135643,0.0625,0.6875,-0.8125
1582293951158636,-0.5,0.1875,-0.0625
1582293951173605,-0.125,0.25,-0.0625
1582293951196480,1.125,0.3125,-0.1875
1582293951219421,1.25,0.5,-0.4375
1582293951233570,0.125,0.3125,-0.1875
1582293951256319,-0.375,-0.5,0.3125
1582293951284446,1.0625,-0.4375,0.8125
1582293951293222,2.9375,-0.25,0.875
1582293951316217,1.875,-0.4375,-0.125
1582293951338104,0,-0.0625,0.5
1582293951353075,-0.25,-0.625,0.75
1582293951376045,1,-0.5,1.1875
1582293951398989,-0.0625,0.25,1.375
1582293951412907,1.3125,0.75,-1.75
1582293951436046,-1.75,0.8125,0.625
1582293951458777,-0.6875,0.375,-0.375
1582293951480047,-1.375,0.25,-0.8125
1582293951496679,-2.4375,-0.125,-0.1875
1582293951518680,-2.0625,0.8125,-1.375
1582293951532866,-1.8125,1.5625,-1.0625
1582293951556516,-2.875,1.0625,-1
1582293951578778,-3,0.6875,-1.25
1582293951599594,-2.3125,0.3125,-1
1582293951616356,-1.5625,-0.125,-0.0625
1582293951638457,3.25,-1.1875,0.375
1582293951659450,0.8125,-0.8125,1.625
1582293951676196,2.5625,0.125,2
1582293951698154,1.1875,0,2.1875
1582293951720078,-0.0625,-1.6875,2.4375
1582293951736092,-0.25,-2.125,-1
1582293951758974,-3.0625,1.125,-0.5625
1582293951779943,-3.5625,2.5625,-0.125
1582293951795881,-4.25,1.375,-1.5625
1582293951818876,-2.125,1,-1.9375
1582293951823799,-2.625,1.3125,-1.25
1582293951846933,-4.4375,2,-1.5
1582293951861932,-3.625,3.3125,-0.4375
1582293951884108,-3,3.3125,0.75
1582293951907013,-3.125,2.875,-0.625
1582293951921539,-0.625,3.375,1.5625
1582293951944478,1.5625,5.8125,2.125
1582293951966662,4,3.75,0.5625
1582293951981838,6.6875,-0.3125,1.3125
1582293952011304,4.0625,-2.125,3.125
1582293952026410,2.375,-1.375,4.25
1582293952041699,3.25,-0.3125,3.125
1582293952065156,2.625,0.6875,0.75
1582293952082130,-1,0.9375,0.3125
1582293952102188,-2.25,0.625,0
1582293952124425,-1.8125,1.25,-1.1875
1582293952141951,-1.4375,1.75,-1.5625
1582293952161897,-0.6875,1.375,-1.875
1582293952184044,1.3125,0.9375,-1.25
1582293952202277,4.625,1.25,-0.875
1582293952221795,6.9375,1.6875,-1.625
1582293952243972,8.9375,1.9375,-2.375
1582293952261636,9.8125,2.375,-4.125
1582293952281796,5.875,2.4375,-4.9375
1582293952304310,0.1875,3,-5.3125
1582293952323466,-5.3125,0.9375,-2.5625
1582293952341822,-3.625,-0.9375,0.625
1582293952364529,1.625,-1.25,2.625
1582293952389634,5.875,0.1875,2.0625
1582293952401401,4.875,-0.125,3
1582293952424386,1.5,-0.8125,3.625
1582293952442154,1.4375,-2.125,2.5625
1582293952462152,0.6875,-2.8125,1.5
1582293952484269,-0.3125,-2.4375,0.5
1582293952501996,-0.25,-1.4375,-0.5
1582293952521932,-0.375,-0.8125,-1.0625
1582293952544025,-1.25,-0.375,-0.9375
1582293952561827,-1.125,0.25,-0.25
1582293952581979,-0.4375,0.5625,-0.0625
1582293952603904,0.25,0.3125,-0.0625
1582293952621667,0.375,-0.8125,0
1582293952641848,0.375,-1.8125,-0.125
1582293952663763,-0.0625,-2.125,-0.125
1582293952682272,-0.25,-2.25,-0.5625
1582293952702537,-0.0625,-2.125,-0.9375
1582293952724577,0.125,-2,-1.0625
1582293952741587,-1.0625,-1.5,-0.9375
1582293952763302,-1.9375,-1.0625,-0.75
1582293952784417,-2.125,-0.6875,-0.1875
1582293952802307,-1.125,-0.6875,-0.6875
1582293952823128,-1,-0.5625,-1.0625
1582293952844128,-1.25,-0.75,-1
1582293952862300,-1.375,-1.3125,-1.1875
1582293952883019,-1.75,-1,-0.9375
1582293952904007,-1,-0.5,-0.9375
1582293952921864,-0.5,-0.125,-1.125
1582293952943049,-1,-0.1875,-1
1582293952963966,-0.9375,-0.5,-0.9375
1582293952987695,-0.6875,-0.9375,-0.75
1582293953004642,-0.1875,-0.9375,-0.4375
1582293953023785,0.1875,-0.5,-0.1875
1582293953049523,0.3125,-0.1875,-0.125
1582293953064590,0.25,-0.3125,-0.0625
1582293953084479,-0.1875,-0.0625,-0.1875
1582293953102381,-0.8125,0.25,-0.625
1582293953124441,-1.1875,0.6875,-0.75
1582293953144316,-1,0.8125,-1.3125
1582293953162219,-2.75,0.8125,-1.25
1582293953184487,-3.3125,0.5625,-1.25
1582293953204114,-2.6875,0.375,-1.3125
1582293953222083,-1.75,0.375,-1.1875
1582293953244685,-1.1875,0.3125,-0.8125
1582293953265125,-0.8125,0.25,-0.25
1582293953281901,-0.375,0.1875,0.0625
1582293953304845,-0.375,-0.0625,0.3125
1582293953326785,0.25,-0.1875,0.3125
1582293953342363,0.25,0.1875,0.5
1582293953364738,0.4375,0.25,0.625
1582293953383791,-0.1875,0.4375,0.6875
1582293953401835,-1,0.875,0.5625
1582293953424519,-0.625,0.6875,-0.0625
1582293953444543,-1.1875,0.875,0.0625
1582293953461419,-0.6875,1.25,0.0625
1582293953483360,-0.6875,1.25,-0.25
1582293953504897,-0.8125,0.875,0.0625
1582293953521258,-0.5,0.4375,0.4375
1582293953543203,-0.3125,0.125,0
1582293953565227,-0.875,0,0.0625
1582293953581144,-0.5625,-0.125,0
1582293953604045,-0.5,0.0625,-0.0625
1582293953625198,-0.5,0,-0.125
1582293953640944,-0.9375,0,-0.0625
1582293953663877,-0.9375,0.1875,0
1582293953685020,-0.8125,0.3125,0.125
1582293953700839,-0.6875,0.375,0.375
1582293953723718,-0.125,0.4375,0.25
1582293953744666,-0.1875,0.4375,0.4375
1582293953760840,-0.125,0.3125,0.4375
1582293953783869,-0.0625,0.5,0.3125
1582293953804502,-0.1875,0.4375,0.3125
1582293953821457,-0.25,0.3125,0.3125
1582293953843518,-0.25,0.3125,0.1875
1582293953864346,-0.4375,0.125,0.125
1582293953887337,-0.4375,0.25,0.0625
1582293953903442,-0.125,0.375,0
1582293953924659,0,0.25,-0.0625
1582293953941206,-0.125,0.1875,0.0625
1582293953963276,-0.125,0.1875,0.125
1582293953986028,0.5,0.0625,0.25
1582293954000977,0.5,0.3125,0.375
1582293954023916,0.25,0,0.25
1582293954046919,0.3125,-0.25,0.3125
1582293954061091,0.0625,-0.1875,0.1875
1582293954083762,0.1875,0.1875,0
1582293954105694,-0.0625,0.3125,0.3125
1582293954120660,-0.0625,0.3125,0.375
1582293954143599,-0.1875,0.3125,0.1875
1582293954173565,-0.125,0.0625,0.1875
1582293954180783,0.1875,0,0.125
1582293954203596,0.4375,0.3125,0.125
1582293954226374,0.25,0.3125,0.25
1582293954240340,0.0625,0.0625,0.25
1582293954263526,0.25,0.1875,0.25
1582293954286267,0.1875,0.1875,0
1582293954300177,-0.625,0.25,-0.5
1582293954323248,-0.9375,0.125,-0.125
1582293954346123,-0.5,0,-0.375
1582293954360189,-0.4375,-0.25,-0.1875
1582293954383951,0.0625,-0.375,-0.1875
1582293954405898,0.3125,-0.125,-0.5
1582293954420855,-0.4375,0,-0.1875
1582293954443791,-0.3125,-0.1875,0
1582293954465731,0.125,0,-0.25
1582293954486685,0.1875,0,-0.25
1582293954503632,0.125,-0.1875,-0.25
1582293954525770,0.1875,-0.25,-0.375
1582293954547744,0.125,-0.25,-0.3125
1582293954563576,-0.125,-0.1875,-0.125
1582293954586421,0.125,-0.125,-0.1875
1582293954607552,0.125,0.125,-0.25
1582293954623316,0.0625,0.1875,0
1582293954646312,0.125,0.3125,0.125
1582293954667353,-0.1875,0.4375,0.0625
1582293954683313,0.125,0.25,0
1582293954706152,0.0625,0.1875,0.1875
1582293954727088,0,-0.0625,0.125
1582293954743991,0.25,0,0.0625
1582293954766183,0.125,-0.125,-0.1875
1582293954786912,-0.125,-0.5625,-0.375
1582293954803835,-0.375,-0.5625,-0.375
1582293954825770,-0.1875,-0.3125,-0.6875
1582293954847769,-0.375,-0.1875,-0.3125
1582293954863933,-0.9375,0.0625,-0.1875
1582293954885861,-1.625,0,-0.4375
1582293954908553,-0.875,-0.0625,-0.125
1582293954923513,-0.25,0.0625,-0.25
1582293954946447,0.1875,-0.0625,0.125
1582293954969386,0.625,0.125,-0.1875
1582293954983544,0.25,0.3125,-0.3125
1582293955006287,-0.1875,0.375,-0.25
1582293955028228,-0.1875,0.5,-0.0625
1582293955043411,0.0625,0.4375,-0.1875
1582293955066183,0,0.1875,-0.3125
1582293955088114,-0.0625,-0.4375,-0.3125
1582293955103038,0.25,-0.8125,-0.1875
1582293955125972,0.8125,-0.625,-0.0625
1582293955148951,0.9375,-0.375,0.1875
1582293955162919,0.9375,0,0.4375
1582293955185819,0.6875,-0.0625,0.25
1582293955208746,0.5625,-0.4375,0
1582293955222830,0.3125,-0.5625,-0.125
1582293955245694,0.375,-0.4375,-0.25
1582293955268653,0.4375,-0.125,-0.375
1582293955282971,0.3125,0.25,-0.4375
1582293955306484,0.1875,0.1875,-0.4375
1582293955328439,-0.0625,0.25,-0.4375
1582293955342570,-0.125,0.0625,-0.4375
1582293955366322,0.0625,-0.0625,-0.3125
1582293955388264,0.6875,0,-0.1875
1582293955409615,0.875,-0.1875,-0.0625
1582293955426209,1,-0.375,0.125
1582293955448165,0.8125,-0.5625,0.25
1582293955470045,0.8125,-0.5,0.375
1582293955486499,1,-0.4375,0.375
1582293955508942,1.125,-0.375,0.25
1582293955530085,0.875,-0.3125,0.25
1582293955546931,0.625,-0.8125,0.375
1582293955568793,0.5625,-1.25,0
1582293955589927,0.25,-0.9375,-0.25
1582293955605731,0.6875,-0.8125,-0.3125
1582293955634755,0.6875,-0.5625,-0.4375
1582293955649767,-0.625,-0.25,-0.4375
1582293955666565,-1.1875,-0.1875,-0.6875
1582293955688666,-1.1875,-0.125,-0.875
1582293955717603,-0.9375,-0.1875,-0.8125
1582293955726360,-0.5625,-0.1875,-0.875
1582293955748301,-0.5625,-0.0625,-0.75
1582293955769255,-0.8125,-0.25,-0.75
1582293955786199,-0.5,-0.3125,-0.5
1582293955808141,-0.25,0.0625,-0.25
1582293955830095,-0.125,0.0625,-0.25
1582293955846096,-0.1875,0,-0.3125
1582293955868368,-0.1875,-0.1875,-0.375
1582293955890924,-0.3125,-0.5625,-0.5
1582293955905888,-0.5,-0.5,-0.5625
1582293955928873,-0.4375,-0.3125,-0.6875
1582293955958739,-0.8125,-0.0625,-0.5625
1582293955965749,-0.6875,-0.1875,-0.75
1582293955988713,-0.5625,-0.375,-0.75
1582293956010599,-0.5,-0.3125,-0.6875
1582293956025559,-0.1875,-0.3125,-0.75
1582293956049003,-0.125,-0.125,-0.4375
1582293956071446,0.0625,0,-0.3125
1582293956085410,0.1875,-0.0625,-0.3125
1582293956108563,0.125,-0.1875,-0.25
1582293956131331,0.0625,-0.1875,-0.0625
1582293956145419,0.5625,0.0625,0.125
1582293956168225,0.8125,0.4375,0
1582293956191171,0.25,0.4375,0.375
1582293956205179,0.625,0.125,0.375
1582293956229058,0.75,0.0625,0.25
1582293956250961,0.625,0,0.25
1582293956265366,1.3125,-0.0625,0.1875
1582293956288855,1.25,0.0625,0.0625
1582293956310797,0.5625,-0.3125,0
1582293956325758,0.1875,-0.125,0
1582293956348752,-0.3125,0,-0.1875
1582293956370641,0.3125,0.1875,-0.5
1582293956393837,0,0.375,-0.5
1582293956408588,-0.3125,0.375,-0.25
1582293956431473,-0.1875,-0.0625,-0.5625
1582293956452476,-0.375,-0.125,-0.4375
1582293956476356,0.0625,-0.125,-0.5
1582293956491312,0.375,0.125,-0.375
1582293956512451,0.25,0.4375,-0.1875
1582293956528270,0.25,0.5625,-0.125
1582293956551158,0.3125,0.3125,-0.0625
1582293956572286,0.8125,0.1875,0
1582293956588111,0.6875,0.0625,0
1582293956610996,0.5,0,-0.0625
1582293956632090,0.1875,0.0625,-0.25
1582293956654938,0.125,-0.0625,-0.125
1582293956671831,0.25,0,-0.125
1582293956691931,0.0625,0.125,-0.375
1582293956708733,-0.25,0.375,-0.3125
1582293956730776,-0.1875,0.4375,-0.3125
1582293956752620,0.125,0.3125,-0.5
1582293956768579,-0.25,0.0625,-0.5625
1582293956791511,-0.3125,0.125,-0.4375
1582293956813456,-0.0625,-0.0625,-0.5
1582293956828420,0.375,-0.0625,-0.375
1582293956834536,0.25,-0.0625,-0.3125
1582293956856480,0.0625,0,-0.25
1582293956879316,0.125,0,-0.375
1582293956894445,0,0.125,-0.4375
1582293956916404,-0.25,0.1875,-0.5
1582293956939331,-0.25,0,-0.5
1582293956955159,-0.3125,0.125,-0.4375
1582293956977072,-0.1875,0.25,-0.25
1582293956999125,0.0625,0.25,-0.3125
1582293957014264,0.1875,0.0625,-0.1875
1582293957036854,0.25,-0.0625,-0.1875
1582293957059060,0.1875,0.0625,-0.1875
1582293957074108,-0.1875,-0.125,-0.25
1582293957103677,-0.1875,-0.1875,-0.5
1582293957119035,-0.5,0.4375,-0.6875
1582293957133804,-0.375,0.5,-0.9375
1582293957156686,-0.9375,0.5625,-0.8125
1582293957180525,-1.5,0.6875,-1.125
1582293957194492,-1.75,0.5,-0.875
1582293957224504,-0.875,0.3125,-1.1875
1582293957239430,-0.875,-0.125,-0.875
1582293957255275,-0.25,-0.5,-0.625
1582293957276214,0.25,-0.625,-0.375
1582293957299385,0.5,-0.625,-0.125
1582293957314353,0.9375,-0.375,0.1875
1582293957338218,1.1875,-0.1875,0.1875
1582293957359131,0.6875,0.0625,0.125
1582293957374090,0.25,0.125,0.0625
1582293957396938,0,0.1875,-0.1875
1582293957418887,0.125,0.25,-0.4375
1582293957435822,-0.125,0.1875,-0.375
1582293957456911,-0.1875,0.1875,-0.375
1582293957478870,-0.1875,0.25,-0.3125
1582293957495627,-0.375,0.125,-0.3125
1582293957516797,-0.0625,-0.0625,-0.5
1582293957541503,0.0625,-0.0625,-0.4375
1582293957555501,-0.125,0,-0.5
1582293957576801,-0.125,-0.0625,-0.5625
1582293957594397,-0.0625,-0.125,-0.5625
1582293957615320,-0.125,-0.25,-0.4375
1582293957636627,0.0625,-0.25,-0.4375
1582293957654208,0.25,-0.125,-0.4375
1582293957675512,0.125,-0.0625,-0.375
1582293957696092,0.25,-0.1875,-0.375
1582293957714638,0,-0.125,-0.1875
1582293957736984,0.125,-0.25,-0.3125
1582293957756928,0.0625,-0.0625,-0.25
1582293957774112,-0.0625,0,-0.1875
1582293957796906,0.25,0.0625,-0.3125
1582293957816973,0.1875,0.1875,-0.1875
1582293957834723,0.0625,0.1875,-0.1875
1582293957856803,0.1875,0.125,-0.125
1582293957876942,0.1875,0,0
1582293957894609,0.375,-0.25,-0.0625
1582293957916499,0.4375,0,-0.125
1582293957936614,0.125,-0.1875,-0.25
1582293957959385,0,-0.25,-0.375
1582293957976562,-0.0625,-0.0625,-0.4375
1582293957996439,0.0625,0,-0.375
1582293958014543,0,0.0625,-0.0625
1582293958037180,-0.0625,0.125,0.0625
1582293958056183,0.375,-0.125,0.0625
1582293958074084,0.9375,-0.375,0.0625
1582293958097022,0.9375,-0.4375,0.3125
1582293958116998,0.625,-0.4375,0.5625
1582293958134916,0.75,-0.4375,0.5
1582293958156862,1,-0.25,0.4375
1582293958176859,1.125,-0.0625,0.625
1582293958194759,0.9375,-0.25,0.4375
1582293958216698,0.625,-0.25,0.0625
1582293958236811,-0.0625,-0.3125,0
1582293958254600,0,-0.4375,-0.375
1582293958276536,0.375,-0.5,-0.625
1582293958296484,-0.125,-0.5,-0.375
1582293958326738,-0.0625,-0.5,-0.625
1582293958336790,0,-0.375,-0.5
1582293958358319,0,-0.375,-0.5625
1582293958374322,-0.125,-0.4375,-0.625
1582293958397269,-0.0625,-0.5,-0.6875
1582293958418354,-0.25,-0.5,-0.875
1582293958434114,-0.3125,-0.5,-0.8125
1582293958456055,-0.125,-0.5,-0.5625
1582293958478996,0.1875,-0.375,-0.5
1582293958493013,0.1875,-0.125,-0.375
1582293958515904,0.125,-0.25,-0.25
1582293958536927,0.3125,-0.3125,-0.25
1582293958553793,0.1875,-0.125,-0.375
1582293958575735,-0.125,0,-0.4375
1582293958598676,-0.375,-0.0625,-0.4375
1582293958615454,-0.375,-0.1875,-0.625
1582293958636250,-0.25,-0.25,-0.5
1582293958657520,-0.3125,-0.0625,-0.5
1582293958673479,-0.1875,-0.1875,-0.5625
1582293958696412,-0.125,-0.3125,-0.5625
1582293958726363,-0.125,-0.375,-0.5
1582293958733496,-0.125,-0.6875,-0.5
1582293958756255,0.125,-0.625,-0.3125
1582293958778298,0.25,-0.4375,-0.0625
1582293958794204,0.3125,-0.625,-0.25
1582293958816159,0.6875,-0.9375,-0.0625
1582293958838250,0.9375,-1,0.1875
1582293958852994,1.6875,-0.75,0.25
1582293958882141,1.0625,-0.3125,1
1582293958898922,0.6875,-0.1875,0.9375
1582293958912839,0.9375,-0.3125,0.4375
1582293958935781,0.5625,-0.625,0.4375
1582293958958753,0.375,-0.4375,0.125
1582293958972678,0.0625,0.125,-0.0625
1582293959003590,-0.375,0.5,-0.125
1582293959018716,-0.5,0.9375,-0.125
1582293959032572,-0.3125,1,-0.0625
1582293959056452,-0.1875,0.875,-0.0625
1582293959078410,-0.375,0.5625,0
1582293959092537,-0.25,0.375,-0.0625
1582293959116341,0.125,0.25,-0.25
1582293959138288,0.1875,0,-0.125
1582293959160171,0,-0.125,-0.3125
1582293959176333,-0.375,0.1875,-0.4375
1582293959198461,-0.75,0.4375,-0.75
1582293959219046,-0.75,0.75,-0.875
1582293959235970,-1,0.875,-1.125
1582293959258909,-1.4375,0.8125,-1.375
1582293959280854,-1.6875,0.8125,-1.625
1582293959303788,-1.6875,0.9375,-2
1582293959318839,-1.5,1.0625,-1.9375
1582293959340109,-1.6875,1,-1.6875
1582293959355837,-1.25,0.875,-1.3125
1582293959378927,-0.75,0.6875,-0.9375
1582293959400585,0.0625,0.1875,-0.375
1582293959416486,0.875,0.0625,-0.0625
1582293959438430,1.125,-0.0625,0.375
1582293959459428,1.4375,-0.3125,0.5
1582293959476327,1.625,-0.3125,0.625
1582293959498481,1.4375,-0.25,0.625
1582293959521205,1.4375,-0.125,0.625
1582293959536279,1.0625,-0.25,1
1582293959559131,1.3125,-0.25,1
1582293959580147,1.3125,-0.375,0.9375
1582293959596010,1.25,-0.4375,0.75
1582293959618957,1.125,-0.3125,0.5625
1582293959639947,1,-0.3125,0.1875
1582293959655851,0.3125,-0.0625,0
1582293959678840,-0.4375,0.1875,0.0625
1582293959706904,-0.625,0.3125,-0.375
1582293959715700,-0.625,0.375,-0.5
1582293959745606,-0.6875,0.5,-0.5625
1582293959760787,-0.625,0.5,-0.75
1582293959775836,-0.75,0.375,-0.6875
1582293959798466,-0.75,0.1875,-0.75
1582293959821406,-0.6875,0.25,-0.625
1582293959835420,-0.25,0.1875,-0.75
1582293959858307,-0.5625,0.3125,-0.8125
1582293959881313,-1,0.3125,-0.6875
1582293959895254,-1.0625,0.4375,-0.875
1582293959919158,-0.625,0.25,-1.0625
1582293959941141,-0.625,0,-0.6875
1582293959955092,-0.25,-0.125,-0.625
1582293959985009,0,-0.25,-0.5
1582293960001134,-0.25,-0.0625,-0.25
1582293960016105,-0.125,0,-0.25
1582293960038822,0.1875,-0.0625,-0.25
1582293960060763,-0.0625,-0.125,-0.5
1582293960075723,-0.375,-0.125,-0.5625
1582293960098664,-0.375,0.125,-0.5
1582293960120667,-0.0625,0.125,-0.5
1582293960135847,-0.25,0,-0.375
1582293960158550,-0.375,-0.0625,-0.375
1582293960181439,-0.0625,-0.0625,-0.25
1582293960202449,0.375,0.125,-0.1875
1582293960218866,0.4375,-0.0625,-0.1875
1582293960241279,0,-0.0625,-0.125
1582293960262468,-0.125,-0.125,-0.1875
1582293960278182,0.0625,0.0625,-0.3125
1582293960301344,0,0.25,-0.375
1582293960322252,-0.1875,0.1875,-0.4375
1582293960339019,-0.4375,0,-0.5625
1582293960360963,-0.5625,0.0625,-0.5625
1582293960382044,-0.375,0.0625,-0.375
1582293960398926,0,0.1875,-0.375
1582293960420799,-0.125,0,-0.5
1582293960441745,-0.25,-0.125,-0.5625
1582293960458737,-0.375,0.125,-0.4375
1582293960480642,-0.0625,0.0625,-0.625
1582293960502213,-0.125,0.0625,-0.375
1582293960518547,-0.4375,0,-0.125
1582293960541541,0.0625,-0.0625,-0.375
1582293960563422,0.1875,-0.125,-0.25
1582293960578381,0.0625,-0.125,-0.3125
1582293960601317,0.0625,-0.1875,-0.1875
1582293960623451,0,-0.0625,-0.3125
1582293960638274,-0.25,0,-0.4375
1582293960661216,0,0.25,-0.125
1582293960683186,0.375,0.25,-0.25
1582293960698452,-0.0625,0.25,0.0625
1582293960721206,0,0.125,0
1582293960743969,0.1875,0.0625,-0.1875
1582293960757955,0.5,-0.125,-0.375
1582293960780896,0.0625,-0.3125,-0.25
1582293960803779,0,-0.1875,-0.4375
1582293960817820,-0.3125,-0.0625,-0.375
1582293960840793,-0.1875,0,-0.1875
1582293960863669,0.1875,-0.25,-0.375
1582293960877590,0.3125,-0.4375,-0.375
1582293960907547,0.25,-0.8125,-0.625
1582293960923460,0.0625,-0.75,-0.5
1582293960946393,0.0625,-0.5,-0.4375
1582293960961419,-0.0625,-0.1875,-0.5
1582293960983299,-0.3125,-0.0625,-0.625
1582293960998254,-0.4375,-0.1875,-0.8125
1582293961021202,-0.625,-0.3125,-0.875
1582293961043164,-0.5,-0.25,-0.8125
1582293961058095,-0.625,-0.125,-0.75
1582293961081079,-0.625,-0.3125,-0.6875
1582293961103972,-0.625,-0.5625,-0.6875
1582293961124968,-0.3125,-0.5625,-0.6875
1582293961140878,-0.3125,-0.3125,-0.6875
1582293961163810,-0.3125,-0.3125,-0.75
1582293961193780,-0.5,-0.125,-0.75
1582293961200791,-0.75,-0.1875,-0.75
1582293961223656,-0.6875,-0.375,-0.8125
1582293961244794,-0.5625,-0.3125,-0.875
1582293961260908,-0.4375,-0.625,-0.9375
1582293961283535,-0.25,-0.625,-0.6875
1582293961304652,-0.1875,-0.625,-0.6875
1582293961321391,-0.0625,-0.4375,-0.75
1582293961343510,-0.0625,-0.25,-0.3125
1582293961381465,-0.3125,0,-0.25
1582293961384221,-0.5,-0.125,-0.5
1582293961403186,-0.625,-0.375,-0.4375
1582293961424313,-0.4375,-0.5625,-0.6875
1582293961441340,-0.125,-0.375,-0.8125
1582293961464010,-0.3125,-0.25,-0.875
1582293961484962,-0.5,-0.125,-0.75
1582293961500960,-0.4375,0.1875,-0.4375
1582293961523854,-0.0625,0.3125,-0.375
1582293961545790,0.0625,0,-0.125
1582293961560749,0.0625,-0.125,-0.1875
1582293961590062,0.1875,-0.3125,-0.375
1582293961605799,0.375,-0.4375,-0.4375
1582293961620942,0.0625,-0.5,-0.3125
1582293961643599,0,-0.25,-0.5625
1582293961666466,-0.3125,0.0625,-0.4375
1582293961681426,-0.4375,0.125,-0.4375
1582293961703373,-0.1875,0.0625,-0.5
1582293961726306,-0.0625,-0.0625,-0.5625
1582293961747542,-0.0625,-0.3125,-0.5
1582293961763210,0.25,-0.3125,-0.3125
1582293961786147,0.3125,-0.1875,-0.125
1582293961800440,0.5,0.125,0
1582293961824045,0.6875,0.3125,0.1875
1582293961846343,0.75,0.375,0
1582293961851305,0.6875,0.3125,0.125
1582293961867943,0.5625,0.5,0.1875
1582293961890311,0.3125,0.6875,0.1875
1582293961912010,0.0625,0.625,0.25
1582293961937741,0.0625,0.5625,0.125
1582293961948947,0.375,0.5625,0.125
1582293961971795,0.625,0.1875,0
1582293961987665,0.625,0,0
1582293962008552,0.4375,-0.0625,0.125
1582293962031645,0.625,-0.375,0.0625
1582293962054430,0.5,-0.25,0.3125
1582293962069392,0.5,0.0625,-0.125
1582293962091670,0.4375,0.1875,-0.375
1582293962108285,-0.0625,0.25,-0.0625
1582293962129281,-0.5625,0.5,0
1582293962151221,-0.3125,0.5,-0.25
1582293962169122,-0.1875,0.4375,-0.1875
1582293962189259,-0.0625,0.4375,-0.5
1582293962211239,-0.375,0.625,-0.375
1582293962227964,-0.75,0.5625,-0.25
1582293962249044,-0.4375,0.625,-0.4375
1582293962271906,-0.5,0.625,-0.0625
1582293962287811,0,0.4375,-0.25
1582293962309073,0.1875,0.125,-0.125
1582293962331889,-0.0625,0.0625,0.0625
1582293962347977,0.1875,0.125,-0.1875
1582293962370582,0.0625,-0.0625,0
1582293962391762,0.3125,-0.0625,-0.25
1582293962407622,-0.0625,0.125,-0.3125
1582293962429487,-0.4375,0.1875,-0.375
1582293962451791,-0.4375,0.0625,-0.5
1582293962469317,-0.3125,-0.0625,-0.5
1582293962489476,-0.4375,0.0625,-0.5625
1582293962511797,-0.25,0.0625,-0.625
1582293962529158,-0.25,0.1875,-0.625
1582293962549315,-0.1875,0.125,-0.3125
1582293962579280,-0.1875,-0.125,-0.25
1582293962589155,0.0625,-0.0625,-0.3125
1582293962608946,0.0625,-0.0625,-0.3125
1582293962631944,0.3125,-0.0625,-0.3125
1582293962649572,0.25,0.3125,-0.4375
1582293962668791,-0.4375,0.4375,-0.4375
1582293962691725,-0.6875,0.375,-0.375
1582293962709675,-0.5,0.1875,-0.4375
1582293962728826,-0.3125,0,-0.3125
1582293962751811,0.1875,0,-0.125
1582293962769515,0.375,-0.0625,0
1582293962789673,0.3125,-0.5625,-0.25
1582293962811406,0,-0.4375,-0.125
1582293962829355,0,-0.375,-0.5
1582293962849472,0,0,-0.5625
1582293962871446,-0.5,0.125,-0.3125
1582293962889194,-1,0.1875,-0.5
1582293962909446,-0.875,-0.0625,-0.75
1582293962932120,-0.875,0,-0.5625
1582293962949035,-0.5,0.125,-0.5625
1582293962977008,-0.375,0.0625,-0.4375
1582293962991140,-0.4375,0.0625,-0.375
1582293963016904,-0.25,0.0625,-0.1875
1582293963028878,0.0625,0.1875,0.0625
1582293963051801,0.5,0.0625,-0.125
1582293963069711,0.0625,0.0625,-0.0625
1582293963090656,-0.4375,0,0
1582293963111803,-0.1875,0.125,-0.3125
1582293963129737,0.0625,-0.0625,-0.25
1582293963150696,-0.125,-0.25,-0.125
1582293963166928,-0.125,-0.4375,-0.3125
1582293963189390,-0.25,-0.3125,-0.25
1582293963210382,0.0625,-0.125,-0.3125
1582293963226298,0.3125,-0.0625,0
1582293963249233,0.0625,-0.25,0
1582293963270177,0,-0.3125,-0.125
1582293963287235,0,-0.4375,-0.1875
1582293963309069,0.25,-0.1875,-0.125
1582293963330014,0.125,0.125,-0.125
1582293963346986,0.125,0.1875,-0.1875
1582293963369079,0,-0.0625,-0.0625
1582293963390052,0.125,-0.0625,-0.0625
1582293963414309,0.1875,-0.0625,-0.0625
1582293963428805,-0.125,0.1875,-0.1875
1582293963452004,0.125,0.0625,0.1875
1582293963471855,0.375,0.0625,0.5
1582293963488646,0.8125,-0.125,-0.125
1582293963510684,0.5,0.0625,0.125
1582293963525582,-0.375,0.0625,0
1582293963554617,0,-0.3125,-0.3125
1582293963571371,-0.0625,-0.125,0
1582293963601464,0.3125,-0.125,-0.6875
1582293963608689,0.0625,-0.125,-0.5
1582293963631268,-0.5625,0.125,0.0625
1582293963645518,-0.25,0.0625,0
1582293963668121,0.125,0,-0.0625
1582293963691446,0.1875,-0.1875,0.0625
1582293963705018,0.5625,-0.25,0.0625
1582293963728947,0.5625,-0.0625,0.1875
1582293963750897,0.375,0.1875,0.125
1582293963765850,0.1875,0.3125,0.125
1582293963788788,0.375,0.25,0.1875
1582293963810730,0.25,0.0625,0.3125
1582293963825689,0.125,0.125,0.1875
1582293963848686,0,0.25,-0.0625
1582293963871030,0.125,0,-0.25
1582293963885528,-0.125,-0.1875,-0.25
1582293963908952,-0.3125,-0.3125,-0.25
1582293963931407,-0.1875,-0.125,-0.1875
1582293963952350,-0.125,0,0
1582293963968625,0.3125,-0.125,-0.1875
1582293963991248,0.25,-0.4375,-0.25
1582293964012559,0.25,-0.625,-0.3125
1582293964028195,0,-0.6875,-0.3125
1582293964051137,0.1875,-0.625,-0.25
1582293964072224,0.5,-0.3125,-0.25
1582293964088984,0.3125,-0.125,-0.1875
1582293964110931,0.0625,-0.25,-0.25
1582293964132081,-0.1875,-0.3125,-0.5
1582293964148824,-0.5625,-0.375,-0.5625
1582293964170768,-0.3125,-0.25,-0.5
1582293964199890,-0.4375,-0.1875,-0.375
1582293964208729,-0.375,-0.125,-0.25
1582293964230699,-0.25,-0.5625,-0.25
1582293964252546,0.25,-0.625,-0.25
1582293964268509,0.25,-0.5,-0.1875
1582293964291444,0.3125,-0.5625,-0.0625
1582293964312671,0.375,-0.25,-0.125
1582293964328562,-0.1875,-0.5,-0.1875
1582293964351284,-0.125,-0.75,-0.3125
1582293964372428,-0.3125,-0.5,-0.4375
1582293964389181,-0.125,-0.25,-0.4375
1582293964411127,-0.1875,0.125,-0.1875
1582293964433248,-0.8125,0.375,0
1582293964448249,-0.625,-0.125,-0.1875
1582293964470967,-0.5625,-0.5,-0.25
1582293964493901,-0.1875,-0.5,-0.375
1582293964508918,0.1875,-0.4375,-0.25
1582293964530808,0.125,-0.125,-0.1875
1582293964553741,-0.125,-0.125,0
1582293964567819,-0.0625,0.0625,0
1582293964590643,0.1875,-0.0625,0
1582293964613871,0.25,-0.1875,0.125
1582293964627544,0.25,-0.25,0.1875
1582293964650492,0.3125,-0.3125,0
1582293964673428,0.4375,-0.4375,-0.0625
1582293964687384,0.3125,-0.5,-0.25
1582293964711371,0,-0.4375,-0.25
1582293964733551,-0.4375,-0.1875,-0.0625
1582293964748223,-0.375,0.125,-0.25
1582293964771397,-0.125,0.1875,-0.25
1582293964793371,0.0625,-0.0625,-0.375
1582293964808062,-0.0625,-0.125,-0.1875
1582293964831418,0.1875,0,0
1582293964853940,0.3125,0.3125,0.125
1582293964874884,0.5,0.4375,0.375
1582293964891127,0.625,0.375,0.3125
1582293964920058,0.6875,0.4375,0.3125
1582293964934768,0.625,0.5625,0.3125
1582293964951011,0.5,0.6875,0.25
1582293964979815,0.125,0.625,0.375
1582293964994614,0.1875,0.5625,0.375
1582293965011518,0.375,0.3125,0.3125
1582293965033464,0.4375,0.125,0.25
1582293965054852,0.75,0.1875,0.25
1582293965071356,0.625,0.125,0.25
1582293965093346,0.5,-0.1875,0.125
1582293965114794,0.375,-0.0625,0.125
1582293965131252,0.375,0.1875,-0.0625
1582293965153444,0.5,0.25,0
1582293965175079,0.1875,0.25,0.1875
1582293965198233,-0.3125,0.375,-0.0625
1582293965213974,-0.375,0.4375,-0.125
1582293965234917,-0.0625,0.25,0
1582293965250886,0.375,0.25,0
1582293965274059,0.1875,0.1875,-0.0625
1582293965294762,-0.25,0.3125,0
1582293965310766,0.125,0.375,-0.0625
1582293965333667,0.1875,0.1875,0.1875
1582293965356592,0.3125,0.125,0
1582293965370618,-0.1875,0.25,0.125
1582293965393794,-0.125,0.25,-0.0625
1582293965416434,0.125,0.125,-0.0625
1582293965430439,0.3125,0,-0.0625
1582293965453336,0.0625,-0.25,-0.125
1582293965476339,-0.25,-0.1875,0
1582293965490239,-0.125,0.1875,0.125
1582293965513198,0.1875,0.1875,0
1582293965536121,0.1875,0.125,0
1582293965550076,0,-0.25,-0.25
1582293965573201,-0.25,-0.1875,-0.1875
1582293965595957,-0.1875,-0.0625,-0.1875
1582293965610159,0.0625,0,-0.125
1582293965633852,-0.0625,0,-0.1875
1582293965663828,-0.125,0,-0.1875
1582293965670752,-0.0625,0,-0.0625
1582293965693751,0.125,0.1875,-0.1875
1582293965716020,0.1875,0.4375,0
1582293965730654,0.0625,0.3125,0.125
1582293965753587,0.25,0.0625,0.25
1582293965776471,0.375,0,0.1875
1582293965790472,0.5625,-0.1875,0.25
1582293965821538,0.5625,0,0.1875
1582293965836315,0.1875,-0.1875,0
1582293965857408,-0.1875,-0.125,0
1582293965873506,-0.125,0,-0.25
1582293965896202,0.25,-0.0625,-0.3125
1582293965917155,-0.1875,-0.1875,-0.0625
1582293965933568,-0.1875,0,-0.0625
1582293965956006,-0.0625,0.0625,-0.1875
1582293965977135,-0.125,0.0625,-0.1875
1582293965993893,0.125,0.125,0
1582293966015831,0.1875,0.0625,-0.125
1582293966036981,-0.125,0.0625,-0.1875
1582293966053728,-0.125,0.0625,0
1582293966075743,0.25,-0.125,-0.125
1582293966104776,0.3125,-0.0625,0.0625
1582293966113622,-0.0625,0,0.0625
1582293966135580,-0.1875,0.1875,0
1582293966157509,-0.0625,0,-0.1875
1582293966173460,0.1875,-0.25,-0.25
1582293966196398,-0.0625,-0.1875,-0.125
1582293966217596,0,-0.0625,-0.125
1582293966233269,-0.0625,-0.0625,-0.0625
1582293966256187,0.1875,-0.1875,-0.125
1582293966278129,0.125,-0.375,-0.25
1582293966293426,-0.1875,-0.1875,-0.25
1582293966316636,-0.25,-0.25,-0.3125
1582293966338153,-0.125,-0.125,-0.25
1582293966353925,-0.0625,0,-0.125
1582293966375878,0.1875,-0.0625,0
1582293966398823,0.125,0.0625,0
1582293966413816,0.3125,0,0
1582293966435709,0.1875,-0.125,-0.0625
1582293966458909,0.1875,-0.0625,-0.0625
1582293966472871,-0.1875,0.125,0.125
1582293966495741,-0.0625,0.1875,0
1582293966518484,0,0.25,0
1582293966532914,0.1875,0,0.25
1582293966556395,0.3125,-0.125,0.125
1582293966578331,0.3125,-0.3125,0.1875
1582293966593284,0.5625,-0.0625,0.1875
1582293966616275,0.375,0,0.1875
1582293966638169,0.5,-0.375,0.125
1582293966653123,0.4375,-0.25,0.125
1582293966676117,0.375,-0.375,-0.125
1582293966698064,0.4375,-0.3125,0.25
1582293966720185,0.375,-0.5,0.625
1582293966735907,0.5,-0.4375,0.375
1582293966758897,0.4375,-0.3125,0.4375
1582293966772803,0.6875,-0.5,0.25
1582293966795744,0.5625,-0.4375,0.0625
1582293966818718,-0.25,-0.5625,-0.0625
1582293966839852,-0.4375,-0.4375,-0.1875
1582293966855675,-0.375,-0.125,-0.4375
1582293966861570,-0.3125,-0.1875,-0.4375
1582293966883517,-0.5,-0.3125,-0.5625
1582293966901461,-0.75,-0.125,-0.4375
1582293966924439,-0.9375,0.0625,-0.4375
1582293966944346,-0.375,-0.125,-0.375
1582293966961974,0,-0.25,-0.1875
1582293966981441,0.1875,-0.375,-0.3125
1582293967004243,-0.0625,-0.4375,-0.1875
1582293967022137,-0.1875,-0.4375,-0.125
1582293967041132,-0.1875,-0.3125,-0.1875
1582293967064237,-0.125,-0.375,-0.4375
1582293967080462,-0.4375,-0.4375,-0.5625
1582293967100925,-0.5625,-0.5625,-0.6875
1582293967124282,-0.625,-0.5625,-0.5625
1582293967140821,-0.5,-0.3125,-0.5625
1582293967161763,-0.4375,-0.0625,-0.4375
1582293967183715,-0.3125,-0.125,-0.4375
1582293967201655,-0.25,-0.125,-0.375
1582293967221980,0,-0.125,-0.25
1582293967244597,0.1875,-0.25,0
1582293967261497,0.25,-0.375,0.25
1582293967281669,0.625,-0.4375,0.375
1582293967304383,1,-0.5625,0.1875
1582293967321637,0.9375,-0.625,0.3125
1582293967341582,0.375,-0.5,0.25
1582293967364431,0.1875,-0.5,0.0625
1582293967382225,-0.125,-0.125,0.0625
1582293967401358,-0.125,-0.0625,-0.1875
1582293967424453,-0.3125,-0.1875,-0.4375
1582293967442027,-0.5,-0.1875,-0.4375
1582293967462020,-0.6875,-0.25,-0.4375
1582293967484223,-0.5625,-0.25,-0.4375
1582293967502251,-0.375,-0.125,-0.25
1582293967524790,0.125,-0.0625,-0.1875
1582293967543742,0.375,-0.0625,0
1582293967561697,-0.125,0,0.3125
1582293967581869,-0.3125,-0.0625,0.125
1582293967603765,-0.1875,-0.25,-0.0625
1582293967621689,-0.125,-0.125,-0.1875
1582293967641764,-0.0625,-0.1875,-0.1875
1582293967664419,-0.375,-0.0625,-0.1875
1582293967681984,-0.4375,0.375,0
1582293967701376,-0.125,0.75,0.125
1582293967724307,0.375,0.8125,0.25
1582293967742209,0.375,0.625,0.5
1582293967761162,0.1875,0.3125,0.5
1582293967784254,0.1875,0.375,0.375
1582293967802125,0.4375,0.3125,0.25
1582293967821235,0.375,0.25,0.1875
1582293967844083,0,0.3125,0.0625
1582293967861947,-0.3125,0.375,0.125
1582293967882955,-0.1875,0.3125,0
1582293967903924,0.125,0.25,0
1582293967921729,0.0625,0.25,-0.125
1582293967942683,-0.0625,0.1875,-0.125
1582293967963840,0.1875,-0.0625,-0.125
1582293967981934,0.1875,0.0625,-0.125
1582293968004509,0.125,0.1875,-0.0625
1582293968031634,-0.0625,0.25,0
1582293968042237,0,0.4375,-0.25
1582293968062715,0,0.625,-0.1875
1582293968084400,-0.125,0.8125,-0.1875
1582293968102247,-0.1875,0.9375,-0.0625
1582293968123196,-0.3125,0.5625,0.1875
1582293968144516,-0.0625,0.3125,0.125
1582293968162096,0.25,0,0.25
1582293968184054,0.8125,0,0.1875
1582293968204115,0.625,0.375,0.25
1582293968221927,0.1875,0,0
1582293968243867,-0.125,0,0.125
1582293968264029,-0.125,0.1875,-0.0625
1582293968281767,0.1875,0.0625,-0.125
1582293968308918,0.125,0.125,-0.125
1582293968323800,-0.375,0.25,0.1875
1582293968341657,-0.1875,0.25,0
1582293968364609,-0.125,0.1875,0.0625
1582293968384341,0.0625,0.0625,0.0625
1582293968401445,0.125,0.125,0.125
1582293968424386,0,0.125,0.125
1582293968444344,0.0625,0.1875,0.1875
1582293968461343,0.25,0.1875,0.1875
1582293968483409,0.1875,0.1875,0.1875
1582293968505225,0.0625,0.125,0.25
1582293968521179,-0.125,0,0.3125
1582293968543534,0.0625,0.125,0
1582293968565135,0.125,0.25,0.0625
1582293968581275,-0.125,0,0.125
1582293968603904,-0.125,-0.0625,0
1582293968624851,-0.25,-0.0625,0.0625
1582293968640999,-0.125,0.0625,0.125
1582293968663800,0.0625,-0.0625,0.0625
1582293968684750,0.0625,-0.0625,-0.0625
1582293968700850,-0.25,-0.125,-0.1875
1582293968723623,-0.125,-0.0625,-0.25
1582293968744592,0,-0.125,-0.1875
1582293968760487,0,-0.125,0
1582293968783433,0.0625,0,0.125
1582293968804935,0.1875,0.0625,0
1582293968821323,0.1875,0.125,0.0625
1582293968843272,0.25,0,0
1582293968865207,0.125,0.0625,0
1582293968881221,-0.0625,0.0625,0.125
1582293968903162,0.125,0.1875,0.1875
1582293968925138,0.1875,0.1875,0.0625
1582293968941047,0.25,0.125,0
1582293968963939,0.125,-0.0625,0.0625
1582293968992060,0,-0.125,0.0625
1582293969001006,0.25,-0.0625,0.0625
1582293969038799,0.3125,0.0625,0.1875
1582293969044862,0.3125,0.125,0.0625
1582293969060681,-0.125,-0.125,-0.0625
1582293969083928,-0.125,-0.375,-0.0625
1582293969112544,0.0625,-0.3125,-0.125
1582293969120571,0.25,-0.1875,-0.25
1582293969143471,0.375,0.0625,0
1582293969166400,-0.0625,0.0625,0.125
1582293969181362,-0.125,0,0.125
1582293969203478,-0.0625,-0.3125,0.125
1582293969233383,0.375,-0.3125,0
1582293969241199,0.375,-0.3125,0
1582293969263604,0,-0.125,-0.0625
1582293969286123,-0.125,0,-0.125
1582293969300050,-0.125,0,-0.0625
1582293969322980,-0.0625,0.0625,-0.125
1582293969346915,-0.125,-0.125,-0.0625
1582293969360064,-0.125,-0.375,-0.125
1582293969389846,-0.1875,-0.25,-0.1875
1582293969405764,0,-0.4375,-0.375
1582293969420719,-0.125,-0.625,-0.375
1582293969443714,-0.5625,-0.6875,-0.375
1582293969465647,-0.5,-0.25,-0.5
1582293969480614,-0.4375,-0.125,-0.3125
1582293969504495,-0.25,-0.125,-0.375
1582293969526437,-0.1875,-0.4375,-0.375
1582293969540401,-0.4375,-0.6875,-0.4375
1582293969563517,-0.4375,-0.8125,-0.4375
1582293969586277,-0.1875,-0.625,-0.4375
1582293969600247,-0.0625,-0.5,-0.4375
1582293969623490,-0.0625,-0.25,-0.25
1582293969646164,-0.3125,-0.25,-0.3125
1582293969668117,-0.5,-0.1875,-0.3125
1582293969683239,-0.3125,-0.25,-0.375
1582293969706010,-0.1875,-0.375,-0.3125
1582293969726902,-0.3125,-0.375,-0.3125
1582293969743856,-0.4375,-0.375,-0.4375
1582293969765845,-0.3125,-0.3125,-0.25
1582293969794957,-0.125,-0.4375,-0.375
1582293969803694,-0.1875,-0.6875,-0.375
1582293969825649,-0.375,-0.75,-0.1875
1582293969847152,-0.0625,-0.6875,-0.1875
1582293969863599,-0.0625,-0.5625,-0.125
1582293969885878,0,-0.625,0.125
1582293969914596,0.125,-0.625,0
1582293969923379,0.25,-0.4375,-0.125
1582293969946319,-0.0625,-0.375,-0.0625
1582293969967256,-0.3125,-0.3125,-0.1875
1582293969983714,-0.625,-0.5,-0.375
1582293970006152,-0.625,-0.25,-0.375
1582293970027153,-0.5625,-0.0625,-0.5
1582293970043262,-0.25,-0.125,-0.375
1582293970067000,-0.125,-0.1875,-0.0625
1582293970088933,-0.5625,-0.1875,0.0625
1582293970110068,-0.4375,-0.25,-0.0625
1582293970125844,-0.125,-0.5625,0.0625
1582293970148824,0.1875,-0.375,-0.0625
1582293970163798,0.1875,-0.1875,-0.125
1582293970185770,-0.125,0.125,0.125
1582293970208610,-0.125,0.5,0.125
1582293970230600,0.3125,0.5625,0.125
1582293970245708,0.3125,0.3125,0.125
1582293970268457,0,0.0625,0.1875
1582293970282473,-0.125,0,0.125
1582293970306349,-0.0625,0.125,0.0625
1582293970328297,0.1875,0.125,0.0625
1582293970343310,0.125,-0.125,0.0625
1582293970366263,0.1875,-0.25,0
1582293970388530,0.1875,0.125,0.3125
1582293970403091,0.3125,0.3125,0.375
1582293970426084,0.8125,0.25,0.4375
1582293970448152,1,-0.1875,0.1875
1582293970462989,0.4375,-0.3125,-0.0625
1582293970492414,0.0625,-0.375,0.0625
1582293970508873,0.3125,-0.0625,0.125
1582293970522774,0.625,0.125,0.125
1582293970545710,0.375,0.375,0.1875
1582293970568806,0.125,0.5,0.0625
1582293970589737,0.25,0.25,0.125
1582293970605630,0.625,0.1875,0.1875
1582293970628531,0.1875,0.3125,0.125
1582293970650060,0,0.5625,0.1875
1582293970666399,0.0625,0.75,0.25
1582293970688334,0.6875,0.6875,0.125
1582293970709423,0.375,0.5625,0.0625
1582293970726226,0.0625,0.3125,0
1582293970748168,0.1875,0.125,0.125
1582293970769642,0.6875,0,0.125
1582293970786131,0.625,-0.0625,0.125
1582293970809082,0.8125,0,0.25
1582293970830036,0.8125,0.125,0
1582293970846286,0.6875,0.3125,0
1582293970868852,0,0.4375,0.125
1582293970889841,-0.125,0.375,-0.1875
1582293970905751,-0.375,0.3125,-0.3125
1582293970928685,-0.375,0.375,-0.3125
1582293970949906,-0.3125,0.3125,-0.3125
1582293970965633,-0.125,0.25,-0.375
1582293970988575,-0.25,0.125,-0.1875
1582293971009699,-0.0625,-0.125,0
1582293971026423,0.5,-0.0625,-0.0625
1582293971048369,0.375,0.125,0
1582293971071303,-0.125,0.25,-0.0625
1582293971092255,-0.25,0.3125,0
1582293971108204,-0.125,0.25,-0.375
1582293971131435,-0.375,0,-0.125
1582293971152292,-0.5,-0.0625,-0.25
1582293971168113,-0.3125,0,-0.25
1582293971191028,-0.375,0,-0.0625
1582293971205130,-0.4375,0.125,-0.125
1582293971228925,-0.6875,0.125,-0.3125
1582293971250830,-0.75,-0.0625,-0.4375
1582293971265796,-1,0,-0.4375
1582293971288722,-0.75,0,-0.625
1582293971310882,-0.75,0,-0.625
1582293971325676,-0.5,0,-0.3125
1582293971348620,-0.1875,0.0625,-0.25
1582293971371040,-0.125,0,-0.125
1582293971385462,0.0625,-0.0625,0.0625
1582293971408715,0.1875,-0.1875,0.0625
1582293971431339,-0.0625,-0.1875,-0.0625
1582293971452475,-0.125,0,0
1582293971468245,-0.125,0.1875,-0.125
1582293971491178,-0.3125,0.25,-0.1875
1582293971505189,-0.5625,0.125,-0.375
1582293971534149,-0.5625,0,-0.25
1582293971551019,-0.625,0.0625,-0.3125
1582293971572154,-0.1875,0.25,-0.0625
1582293971588396,0.0625,0.125,0
1582293971610914,0.25,-0.4375,0
1582293971632210,0.1875,-0.3125,0.125
1582293971648968,0,0,-0.25
1582293971670747,0.25,0.1875,-0.125
1582293971699925,-0.125,0.3125,0.0625
1582293971708651,-0.4375,0.25,0
1582293971730730,-0.5,0.125,-0.1875
1582293971752555,-0.375,0.0625,-0.125
1582293971768489,-0.1875,0.0625,-0.25
1582293971791376,-0.0625,0,-0.1875
1582293971812500,-0.25,0.0625,-0.3125
1582293971828416,-0.125,-0.0625,0.125
1582293971851215,0.75,-0.25,0.125
1582293971856401,0.875,-0.4375,0.125
1582293971882144,0.1875,-0.75,0.0625
1582293971897158,0.125,-0.8125,0
1582293971918043,0.375,-0.5625,-0.3125
1582293971939377,0.125,-0.625,-0.375
1582293971953940,-0.25,-0.6875,-0.3125
1582293971976881,-0.1875,-0.8125,-0.4375
1582293971998877,-0.0625,-0.75,-0.375
1582293972014013,0,-0.625,-0.25
1582293972036967,0.1875,-0.625,-0.25
1582293972059043,0.125,-0.625,-0.25
1582293972073621,0.0625,-0.625,-0.3125
1582293972096712,0.0625,-0.8125,-0.25
1582293972119066,0.0625,-0.75,-0.375
1582293972133588,-0.0625,-0.5,-0.3125
1582293972156533,-0.0625,-0.4375,-0.3125
1582293972179342,0,-0.1875,-0.375
1582293972195304,-0.125,-0.1875,-0.25
1582293972216299,-0.0625,-0.4375,-0.3125
1582293972239377,0,-0.5,-0.1875
1582293972254321,-0.0625,-0.375,-0.0625
1582293972276295,0.1875,-0.375,0.125
1582293972299076,0.5,-0.3125,0.125
1582293972314205,0.75,-0.1875,0.1875
1582293972336107,0.5,-0.1875,0.125
1582293972359016,0.3125,-0.4375,-0.0625
1582293972374297,0.25,-0.4375,-0.0625
1582293972396906,-0.0625,-0.375,-0.375
1582293972414707,-0.1875,-0.5,-0.4375
1582293972433662,-0.5,-0.375,-0.625
1582293972456597,-0.5625,-0.125,-0.5625
1582293972474552,-0.25,0,-0.3125
1582293972493711,-0.5,0.1875,0
1582293972516589,-0.1875,-0.1875,0.125
1582293972534409,0.3125,-0.375,0.3125
1582293972555382,0.9375,-0.1875,0.375
1582293972576473,2.375,-0.4375,0.125
1582293972594227,2.4375,-0.3125,-0.4375
1582293972615173,-0.5625,0.375,0.125
1582293972637116,-1.3125,1.0625,-0.5
1582293972654071,-0.3125,1.0625,-1.8125
1582293972675072,-0.125,1.125,-1.6875
1582293972696961,-2.125,1.4375,-1.875
1582293972714151,-2.25,1.5625,-1.0625
1582293972735347,-0.75,1.5625,-0.8125
1582293972764001,1.625,0.75,0.125
1582293972774652,2.25,0.9375,0.6875
1582293972795697,2.0625,0.1875,1.625
1582293972816632,4.1875,-0.8125,1.8125
1582293972839114,4.8125,-1.5625,2.5
1582293972855530,4.875,-2.0625,2
1582293972876623,3.625,-1.8125,1.375
1582293972894434,3.1875,-1.5,1.3125
1582293972916365,2.625,-0.75,0.75
1582293972936510,1.8125,0.0625,0.5625
1582293972954265,1.0625,0.9375,0.625
1582293972976206,1.25,1.375,0.5625
1582293972998171,2,1.625,0.6875
1582293973014649,1.5,1.375,0.8125
1582293973037267,1.125,1,0.75
1582293973056186,1.3125,0.5625,0.5
1582293973073944,1.4375,0.6875,0.25
1582293973097238,0.875,0.6875,-0.0625
1582293973116866,0.1875,0.4375,-0.3125
1582293973133784,-0.3125,0.25,-0.6875
1582293973156721,-0.125,0.0625,-0.9375
1582293973176721,0,0,-0.6875
1582293973194676,0.0625,-0.375,-0.75
1582293973216563,0,-0.625,-0.5
1582293973236661,0.3125,-0.625,-0.0625
1582293973254467,0.9375,-0.4375,0.0625
1582293973283175,0.6875,-0.25,0.4375
1582293973296564,-0.0625,-0.1875,0.5
1582293973320479,-0.0625,-0.0625,0.4375
1582293973337239,0.125,-0.125,0.25
1582293973356192,-0.1875,0,0.1875
1582293973374227,-0.375,0.1875,0.125
1582293973397085,-0.75,0.3125,-0.0625
1582293973416038,-1,0.125,0
1582293973433979,-0.1875,0.1875,-0.0625
1582293973456921,-0.5,0.4375,0.0625
1582293973476866,-1.0625,0.125,0.0625
1582293973493884,-1,-0.1875,0.125
1582293973515772,-0.5625,-0.375,-0.1875
1582293973537732,-0.875,-0.375,-0.375
1582293973553876,-1.125,-0.5,-0.25
1582293973575603,-0.8125,-0.5,-0.625
1582293973597603,-1.1875,-0.3125,-0.1875
1582293973613554,-0.8125,-0.25,-0.0625
1582293973635924,-0.5,-0.3125,0
1582293973657418,-0.0625,-0.0625,-0.125
1582293973673775,-0.6875,-0.0625,-0.125
1582293973696328,-0.4375,-0.0625,-0.125
1582293973717286,-0.125,-0.1875,0.125
1582293973733179,0.0625,-0.25,0.125
1582293973756120,-0.5,-0.1875,0.1875
1582293973777515,-0.125,0,0.125
1582293973794025,0.25,0.125,0.1875
1582293973816170,0.5625,-0.0625,0.1875
1582293973837420,-0.0625,-0.1875,0.125
1582293973853857,-0.5,-0.3125,0.125
1582293973875799,-0.25,-0.3125,0.0625
1582293973898739,0.25,-0.3125,-0.125
1582293973913762,-0.0625,-0.25,-0.125
1582293973935654,-0.375,-0.0625,-0.0625
1582293973958627,-0.4375,0.1875,-0.1875
1582293973973537,-0.3125,0.4375,-0.125
1582293973995979,-0.3125,0.1875,-0.0625
1582293974018419,-0.1875,0,-0.0625
1582293974032389,-0.375,-0.25,-0.125
1582293974056318,-0.25,-0.625,-0.3125
1582293974078262,-0.4375,-0.3125,-0.3125
1582293974093217,-0.5625,-0.25,-0.375
1582293974116282,-0.4375,-0.125,-0.25
1582293974138115,-0.875,-0.0625,-0.25
1582293974153057,-0.9375,-0.125,-0.125
1582293974175996,-0.8125,-0.25,0
1582293974198936,-0.4375,-0.375,0.0625
1582293974212965,-0.125,-0.5,0.0625
1582293974235841,-0.0625,-1,0.3125
1582293974258773,-0.125,-0.5,0.25
1582293974272741,-0.125,-0.125,0.6875
1582293974296150,0.5625,-0.3125,0.8125
1582293974318615,0.25,-0.3125,0.5625
1582293974332983,-0.25,-0.3125,0.8125
1582293974355947,-0.5,-0.1875,0.4375
1582293974386435,-0.125,-0.25,0.125
1582293974399584,0,-0.3125,0
1582293974416353,-0.75,-0.4375,-0.125
1582293974438521,-0.75,-0.5,-0.1875
1582293974459400,-0.8125,-0.4375,-0.3125
1582293974476238,-0.25,-0.5625,-0.3125
1582293974498193,-0.0625,-0.9375,-0.375
1582293974520077,-0.125,-1,-0.375
1582293974536045,-0.1875,-1.0625,-0.25
1582293974558237,0.3125,-0.8125,-0.125
1582293974579916,0.75,-0.5625,0.125
1582293974595877,0.8125,-0.75,0.1875
1582293974618812,0.8125,-0.75,0.5
1582293974639926,1.0625,-0.6875,0.3125
1582293974655717,1.1875,-0.8125,0.3125
1582293974679022,1.1875,-0.6875,0.25
1582293974700607,1,-0.8125,0
1582293974715553,0.5625,-0.9375,0
1582293974738555,0.9375,-0.9375,0
1582293974759437,1.4375,-0.5625,0.125
1582293974776401,1.5,-0.4375,0.125
1582293974798521,1.4375,-0.75,0.125
1582293974821269,1.3125,-0.8125,0.375
1582293974836231,1.5625,-1.3125,0.125
1582293974858171,1.75,-1.3125,0.0625
1582293974881168,1.1875,-0.9375,0
1582293974902249,0.875,-0.8125,-0.125
1582293974918133,0.9375,-0.5,-0.4375
1582293974941008,0.3125,-0.3125,-0.75
1582293974954989,0.0625,-0.25,-0.5625
1582293974978851,0.375,-0.125,-0.5625
1582293975000794,-0.1875,0.1875,-0.3125
1582293975015762,-0.4375,0.25,-0.5
1582293975038687,-0.4375,0,-0.4375
1582293975060629,-0.125,-0.125,-0.5625
1582293975075631,-0.3125,0.3125,-0.5625
1582293975098528,-0.8125,0.6875,-0.5625
1582293975120554,-1,0.75,-0.375
1582293975135427,-0.5,0.5,-0.375
1582293975158569,-0.25,-0.0625,-0.375
1582293975181403,-0.375,-0.5,-0.25
1582293975195314,-0.375,-0.875,-0.3125
1582293975218209,-0.0625,-1.125,-0.3125
1582293975241293,0.125,-1.25,-0.4375
1582293975255124,-0.125,-1.4375,-0.5
1582293975278220,-0.3125,-1.4375,-0.6875
1582293975301233,-0.1875,-1.125,-0.5
1582293975322114,0.125,-0.875,-0.4375
1582293975338884,0.3125,-0.75,-0.3125
1582293975360830,0.1875,-1.125,-0.4375
1582293975383767,0,-1.5,-0.4375
1582293975398724,0.4375,-1.625,-0.4375
1582293975420817,0.6875,-1.5,-0.5
1582293975442189,0.375,-1.125,-0.1875
1582293975458636,0.3125,-0.625,-0.1875
1582293975487563,0.3125,-0.25,0.0625
1582293975502589,0.5,0,0.1875
1582293975518409,0.5625,0.4375,0.5
1582293975541341,0.8125,0.6875,0.9375
1582293975562474,1,1,1.25
1582293975578246,1.0625,1.125,1.3125
1582293975601182,1.1875,1.0625,1.3125
1582293975622128,1.1875,0.875,1.0625
1582293975638172,1.25,0.625,1
1582293975661027,0.75,0.5625,0.4375
1582293975689946,0.1875,1.125,0.1875
1582293975698921,-0.3125,1.375,-0.125
1582293975721193,-0.9375,1.375,-0.25
1582293975741946,-1.25,1.125,-0.25
1582293975758761,-1.6875,1.0625,-0.375
1582293975780702,-1.3125,0.875,-0.625
1582293975803641,-0.75,0.75,-0.5
1582293975818601,-0.625,0.625,-0.375
1582293975840905,-1,0.4375,-0.125
1582293975863766,-1.375,0.3125,-0.125
1582293975878495,-0.9375,0.5,0.0625
1582293975901379,-0.0625,0.5,0.125
1582293975923373,0.25,0.6875,0.125
1582293975937484,-0.0625,0.75,0
1582293975961298,-0.625,0.75,0.125
1582293975983306,-0.1875,0.8125,0.25
1582293975998132,0.4375,0.8125,0.1875
1582293976021060,0.625,0.4375,0.125
1582293976049982,0.9375,-0.4375,0.4375
1582293976058019,1.5625,-0.9375,0.75
1582293976081160,2.125,-1.25,1.0625
1582293976103837,2.5,-1.5625,1.5
1582293976117854,2.5,-1.75,1.25
1582293976140740,2.5,-2,0.8125
1582293976169839,2.25,-1.75,0.875
1582293976177641,2.3125,-1.5,0.5625
1582293976200638,2,-1.25,0.25
1582293976223563,1.0625,-1.125,0.125
1582293976237531,0.625,-1.25,-0.125
1582293976260612,0.5625,-1.5,-0.625
1582293976283543,0.125,-1.5,-0.875
1582293976304492,-0.3125,-1.375,-1.1875
1582293976328637,-0.625,-1.4375,-1.5
1582293976343201,-1.0625,-1.375,-1.75
1582293976366291,-0.75,-0.9375,-1.4375
1582293976381341,-0.875,-0.25,-1.5
1582293976403191,-0.5,0.5625,-1.4375
1582293976424979,-0.6875,1.375,-0.8125
1582293976440942,-0.5,1.8125,-0.4375
1582293976463947,0.0625,1.9375,0
1582293976485034,-0.0625,1.5625,0.5
1582293976501061,-0.125,0.9375,1
1582293976523970,0.25,0.625,1.5
1582293976544816,0.625,0.0625,2.0625
1582293976560672,0.9375,-0.8125,2.5625
1582293976583700,1.1875,-1.6875,3.25
1582293976605709,2.75,-2.25,3.9375
1582293976620682,2.0625,-1.9375,4.6875
1582293976643925,0.75,-1.125,5.875
1582293976664499,-0.25,-1.125,6.0625
1582293976681304,0.6875,-1.25,6.875
1582293976703444,2.9375,-1.1875,7.9375
1582293976733154,2.6875,-1.1875,7.5
1582293976741369,1.875,-1.125,7.75
1582293976763121,1.5,-0.8125,7.8125
1582293976786082,2.5,-0.5625,7.4375
1582293976801037,2.875,-0.5,6.9375
1582293976823911,2.9375,-0.4375,6.25
1582293976845857,3.0625,-0.25,5.5625
1582293976861151,1.9375,-0.125,5.125
1582293976865804,1.625,-0.1875,4.375
1582293976888966,2.25,-0.9375,3.875
1582293976912985,2.5,-1.875,3.625
1582293976926786,2.5,-2.4375,3.3125
1582293976948591,2.625,-2.75,2.875
1582293976971646,3.3125,-2.6875,2.75
1582293976987573,3.5625,-2.3125,2.375
1582293977008551,2.75,-1.9375,2.0625
1582293977031505,1.625,-1.5,0.875
1582293977046718,-0.0625,-0.6875,-0.5
1582293977069319,-1.625,0.125,-1.625
1582293977091357,-2.6875,0.5,-2.1875
1582293977106670,-2.8125,0.5,-2.9375
1582293977129318,-3.0625,0.9375,-3.25
1582293977153030,-3.1875,1.5625,-3
1582293977166005,-2.0625,2.125,-2.0625
1582293977196130,-0.125,2.6875,-1.5625
1582293977211931,-0.3125,3,-0.75
1582293977226910,-0.125,2.625,-0.0625
1582293977248783,1,2.25,0.5625
1582293977271740,3.1875,1.375,0.9375
1582293977286733,3.9375,0.6875,1.375
1582293977316649,3.8125,-0.1875,1.6875
1582293977331619,2.5,-0.5625,2.5
1582293977347579,2,-0.625,2.1875
1582293977368657,0.8125,-0.1875,1.6875
1582293977391605,-0.75,-0.3125,1.6875
1582293977407568,-1.5,-0.5625,1.4375
1582293977429292,-1.4375,-0.625,1
1582293977451702,-1.5625,-0.5625,1.0625
1582293977468187,-0.9375,0.0625,1.3125
1582293977489182,0.375,0.5,1.125
1582293977511278,0.8125,0.25,1
1582293977528110,0.25,0.1875,0.625
1582293977549125,0.125,-0.0625,0.1875
1582293977571118,0,-0.6875,-0.5
1582293977587893,-0.125,-1,-0.9375
1582293977609012,-1.0625,-0.9375,-1.25
1582293977631762,-1.875,-0.6875,-1.375
1582293977647978,-1.8125,-0.625,-1.125
1582293977668812,-1.1875,-0.875,-0.75
1582293977691782,-0.125,-1.1875,-0.0625
1582293977709725,0.75,-1.4375,1.1875
1582293977729499,2.0625,-1.5,2.25
1582293977751843,3.4375,-1.4375,3.4375
1582293977769380,4.875,-1.4375,4.0625
1582293977789355,5.375,-1.75,4
1582293977811540,5.0625,-2.375,3.9375
1582293977829222,4.1875,-2.375,3.3125
1582293977849173,3.125,-2.125,2.1875
1582293977871312,2,-1.75,1.25
1582293977889068,0.625,-1.4375,0.125
1582293977909303,-0.0625,-1.0625,-0.75
1582293977927118,-0.9375,-0.5,-1.3125
1582293977949026,-2.125,0.125,-1.625
1582293977969091,-2.375,0.6875,-1.625
1582293977986799,-2.375,0.5625,-1.4375
1582293978008791,-1.8125,0.125,-1.1875
1582293978036790,-1.0625,0,-0.75
1582293978046757,-0.6875,-0.125,-0.375
1582293978069579,-0.1875,0.0625,0
1582293978088529,0.8125,0.25,0.4375
1582293978106482,1.5,0.1875,1.0625
1582293978129653,1.6875,0.125,1
1582293978148377,1.1875,0.0625,1.1875
1582293978166322,1.4375,0.1875,1
1582293978194246,1.9375,0.0625,0.8125
1582293978209340,1.6875,0.0625,0.5
1582293978227164,0.9375,-0.125,0.0625
1582293978249291,0.4375,-0.125,-0.25
1582293978270044,0.3125,0.125,-0.75
1582293978287000,0,0.3125,-1.1875
1582293978309097,-0.625,0.0625,-1.625
1582293978330042,-1.25,-0.25,-1.75
1582293978346891,-1.1875,-0.1875,-1.875
1582293978369667,-1.25,0.25,-1.5625
1582293978390719,-0.9375,0.4375,-1.375
1582293978406678,-0.625,0.375,-1
1582293978429661,-0.5,0.3125,-0.875
1582293978450561,-0.4375,0.3125,-0.5625
1582293978466517,-0.5,0.5625,-0.3125
1582293978489454,-0.1875,0.75,-0.0625
1582293978509458,0,0.625,0
1582293978526356,0.4375,0.5625,0.25
1582293978548699,0.5,0.3125,0.4375
1582293978569752,1.1875,0,0.125
1582293978586195,1.375,0,0.1875
1582293978608215,1.3125,-0.375,0.125
1582293978631089,1.375,-0.5625,0.1875
1582293978646088,0.75,-0.5,0.25
1582293978668106,0.0625,-0.4375,0.0625
1582293978691269,0.3125,-0.3125,0
1582293978705876,0.6875,-0.25,-0.125
1582293978728814,0.3125,-0.125,-0.3125
1582293978750758,-0.25,0,-0.375
1582293978765716,-0.5,0.1875,-0.375
1582293978788656,-0.0625,0.4375,-0.25
1582293978810620,0.5,0.4375,-0.1875
1582293978825556,0.3125,0.5625,0
1582293978855507,0.0625,0.4375,0.125
1582293978870636,0.125,0.3125,0.25
1582293978885434,0.5625,0.25,0.25
1582293978908338,0.8125,0.125,0.5625
1582293978931273,0.75,0.1875,0.5625
1582293978945769,0.625,0,0.4375
1582293978968175,0.625,-0.0625,0.5
1582293978991161,0.5625,-0.1875,0.375
1582293979005131,0.5,-0.125,0.25
1582293979028196,0.125,-0.125,0.0625
1582293979050958,0.0625,-0.125,-0.0625
1582293979064915,0.4375,-0.1875,-0.0625
1582293979088858,0.25,-0.125,-0.0625
1582293979110801,0.0625,-0.125,0
1582293979131794,-0.1875,0,-0.125
1582293979148693,-0.5,-0.125,-0.375
1582293979170680,-1,-0.0625,-0.4375
1582293979192633,-1.875,-0.0625,-0.8125
1582293979208531,-2.1875,0.1875,-1.0625
1582293979231482,-1.9375,0.1875,-1.1875
1582293979252469,-1.625,0.1875,-1.0625
1582293979268382,-1.625,0.125,-0.625
1582293979291314,-1.375,0,-0.125
1582293979312448,-0.75,-0.625,-0.3125
1582293979328212,-0.4375,-0.6875,0.125
1582293979351149,0,-0.4375,0
1582293979373251,0.0625,0.125,-0.125
1582293979388098,-0.75,0.5625,0.1875
1582293979411141,-1.6875,0.875,-0.0625
1582293979431942,-1.5,0.875,-0.0625
1582293979447898,-0.875,0.8125,-0.0625
1582293979470834,-0.5,0.875,-0.25
1582293979491975,-0.9375,0.75,-0.1875
1582293979508778,-1.1875,0.6875,0
1582293979531674,-0.9375,0.5,0
1582293979553607,-0.0625,0.125,0.1875
1582293979568626,0,0.1875,0.3125
1582293979590973,-0.25,0.1875,0.1875
1582293979613757,-0.625,-0.3125,0.125
1582293979628454,-0.25,-0.4375,-0.0625
1582293979657328,0.125,-0.6875,-0.125
1582293979673588,-0.125,-0.75,-0.25
1582293979688771,-0.125,-0.5625,-0.25
1582293979711258,-0.125,-0.375,-0.0625
1582293979733126,0.0625,-0.25,-0.1875
1582293979748293,0.375,-0.25,-0.25
1582293979771391,0.1875,-0.25,-0.25
1582293979793030,0.25,-0.25,-0.25
1582293979807926,0.1875,-0.125,-0.1875
1582293979830878,0.0625,0,-0.0625
1582293979853806,-0.125,0.1875,-0.0625
1582293979867915,0.25,0.3125,0.125
1582293979890759,0.625,0.375,0.125
1582293979913689,0.8125,0.25,0.125
1582293979927612,0.625,0.1875,0.1875
1582293979950677,0.9375,-0.1875,0.375
1582293979973530,0.8125,-0.25,0.5
1582293979987447,1,-0.4375,0.3125
1582293980010574,1.1875,-0.375,0.25
1582293980033328,0.875,-0.1875,0.125
1582293980054437,0.5,-0.25,0.0625
1582293980071222,0.1875,-0.625,0.0625
1582293980093399,0,-0.5625,0
1582293980114117,0.1875,-0.4375,-0.125
1582293980131073,0.0625,-0.5625,-0.3125
1582293980153263,-0.5,-0.125,-0.5
1582293980182074,-0.9375,-0.125,-0.5625
1582293980190908,-1.1875,-0.375,-0.875
1582293980213852,-1.25,0,-0.9375
1582293980241991,-1.3125,0.25,-1.1875
1582293980250742,-0.875,0.3125,-0.75
1582293980273897,-0.8125,0.5,-0.3125
1582293980294792,-0.875,0.1875,-0.3125
1582293980310643,-0.8125,-0.0625,-0.0625
1582293980333756,-0.125,-0.25,0.125
1582293980354513,0.3125,-0.125,0.1875
1582293980370421,0,-0.125,0.25
1582293980393406,-0.3125,-0.125,0.25
1582293980414813,-0.375,-0.0625,0.375
1582293980431273,-0.125,0.0625,0.375
1582293980453205,-0.1875,0.125,0.375
1582293980474713,-0.25,0.125,0.3125
1582293980491100,-0.4375,-0.0625,0.125
1582293980513480,-0.25,-0.3125,0.125
1582293980536309,-0.25,-0.5,0.125
1582293980551004,-0.25,-0.375,0
1582293980573877,-0.375,-0.0625,0.125
1582293980595824,-0.125,-0.0625,0.125
1582293980610779,-0.125,-0.3125,0
1582293980633717,0,-0.5,-0.125
1582293980655657,-0.0625,-0.5625,-0.25
1582293980670619,-0.125,-0.5,-0.375
1582293980693564,-0.25,-0.25,-0.5
1582293980715523,-0.1875,-0.25,-0.1875
1582293980730469,0.0625,-0.3125,-0.25
1582293980759605,0.0625,-0.1875,-0.0625
1582293980776337,0.25,0,-0.125
1582293980790350,0.5625,0,0.0625
1582293980813297,0.6875,-0.1875,0.0625
1582293980836177,0.3125,-0.5,0.125
1582293980850143,0.125,-0.5,0.1875
1582293980873077,0.375,-0.375,0.125
1582293980896017,0.8125,-0.25,0.0625
1582293980910170,0.5625,-0.1875,0.0625
1582293980932921,0.4375,-0.3125,0
1582293980955859,0.3125,-0.4375,-0.3125
1582293980969823,-0.0625,-0.6875,-0.625
1582293980993765,-0.5625,-0.5625,-0.9375
1582293981021861,-0.625,-0.5,-1.4375
1582293981044818,-1,-0.5,-1.875
1582293981054851,-1.0625,0,-1.9375
1582293981075536,-0.4375,0.25,-1.8125
1582293981096628,0.5,0.4375,-1.1875
1582293981113431,1.1875,0.3125,-0.1875
1582293981135503,1.5,0.3125,0.6875
1582293981157361,2.1875,0,1.0625
1582293981173563,2.875,-0.5625,1.4375
1582293981196212,2.875,-0.9375,1.5
1582293981217302,2.6875,-1.0625,1.125
1582293981233321,1.75,-0.875,0.5
1582293981256110,0.6875,-0.5,0.125
1582293981277227,0.5,-0.0625,-0.125
1582293981293406,0.125,0.4375,-0.375
1582293981316167,-0.375,0.375,-0.3125
1582293981337194,-0.1875,0.0625,-0.1875
1582293981359824,0.375,-0.1875,-0.1875
1582293981375737,0.9375,-0.5,0.3125
1582293981396815,1.25,-0.5,0.75
1582293981413746,1.5,-0.4375,0.875
1582293981436228,1.3125,-0.3125,0.9375
1582293981458566,1,-0.5,0.5625
1582293981473501,0.4375,-0.5625,0.375
1582293981496408,-0.3125,-0.375,-0.125
1582293981518351,-0.8125,-0.0625,-0.4375
1582293981533315,-0.875,0.375,-0.3125
1582293981562443,-0.4375,0.625,-0.1875
1582293981578584,-0.4375,0.75,0.125
1582293981593150,-0.1875,0.625,0.25
1582293981616094,0.0625,0.5,0.375
1582293981638396,0.625,0.3125,0.3125
1582293981652996,0.5625,0.25,0.25
1582293981676109,0.125,0.125,0.375
1582293981698103,-0.125,0.0625,0.1875
1582293981712882,-0.4375,0.0625,-0.125
1582293981736007,-0.3125,0.0625,-0.1875
1582293981764703,-0.25,0.125,-0.25
1582293981772675,-0.5,0.125,-0.375
1582293981803589,-0.875,0.25,-0.125
1582293981818548,-0.6875,-0.0625,-0.375
1582293981832514,-0.125,-0.1875,-0.0625
1582293981855607,-0.0625,0,-0.0625
1582293981878396,-0.125,0.3125,0
1582293981883374,-0.375,0.125,0.25
1582293981906706,-0.5,0.0625,0.25
1582293981921803,-0.3125,0.1875,0.1875
1582293981944275,0.125,0.0625,0.25
1582293981966533,0.375,-0.0625,0.25
1582293981981162,0.4375,0.125,0.1875
1582293982004053,0.1875,0.125,0.125
1582293982020015,0.125,0,0.3125
1582293982041952,0.3125,0.1875,0.3125
1582293982064109,0.375,0.25,0.1875
1582293982080000,0.125,0.3125,0.25
1582293982101789,0.125,0.1875,0
1582293982123943,0.125,0.125,-0.1875
1582293982140692,0.125,-0.125,-0.0625
1582293982161838,0.375,-0.25,-0.125
1582293982186802,-0.125,-0.1875,-0.375
1582293982200524,-0.625,-0.25,-0.25
1582293982221673,0.0625,-0.1875,-0.4375
1582293982243614,0.3125,-0.3125,-0.5
1582293982260415,-0.125,-0.375,-0.625
1582293982281525,-0.625,-0.3125,-0.9375
1582293982304311,-0.4375,-0.375,-0.9375
1582293982320479,-0.25,-0.4375,-0.6875
1582293982341291,-0.25,-0.3125,-0.5
1582293982364098,0.0625,-0.125,-0.1875
1582293982382046,0.4375,0,0
1582293982402984,0.875,-0.0625,0.0625
1582293982424140,1.0625,-0.125,0.25
1582293982441885,0.625,-0.125,0.1875
1582293982461860,0.1875,0.0625,0.3125
1582293982483815,0.375,0.125,0.1875
1582293982501721,0.25,0.1875,0.1875
1582293982521670,0,0.4375,0.125
1582293982551731,-0.1875,0.25,0.0625
1582293982561564,-0.0625,0.1875,0.0625
1582293982581503,0.125,0.0625,0
1582293982603612,0.25,-0.5625,-0.0625
1582293982621540,0.375,-0.5,-0.0625
1582293982641691,0.125,-0.4375,-0.3125
1582293982664284,0.25,-0.5,0.0625
1582293982681299,0.125,-0.5,0.1875
1582293982701588,-0.125,-0.5,0.0625
1582293982724333,-0.25,-0.625,0
1582293982742121,-0.375,-0.5,-0.0625
1582293982761183,-0.125,-0.5625,-0.0625
1582293982784166,-0.3125,-0.375,-0.125
1582293982801916,-0.5,-0.375,-0.1875
1582293982820866,-0.1875,-0.25,-0.125
1582293982844211,-0.1875,-0.3125,0.125
1582293982861756,-0.25,-0.4375,0.3125
1582293982882700,-0.25,-0.5,0.3125
1582293982903942,-0.3125,-0.5,0.5
1582293982921596,0.1875,-0.625,0.5
1582293982948526,0.6875,-0.5,0.6875
1582293982963542,0.75,-0.5,0.6875
1582293982981618,0.75,-0.4375,0.625
1582293983002531,1.125,-0.75,0.8125
1582293983025324,1.625,-1.0625,0.625
1582293983042117,1.5625,-1.1875,0.3125
1582293983063219,0.875,-1.125,0.3125
1582293983084226,0.625,-0.9375,-0.0625
1582293983102167,0.5625,-1,-0.375
1582293983123120,0.0625,-0.8125,-0.125
1582293983144218,-0.3125,-0.5,-0.3125
1582293983161958,-0.3125,-0.5,-0.4375
1582293983182950,-0.1875,-0.4375,-0.0625
1582293983203900,0.5625,-0.75,-0.25
1582293983221793,0.375,-1.3125,-0.125
1582293983242790,-0.8125,-1.3125,0.25
1582293983263902,-1.5625,-1,0.25
1582293983282067,-1.0625,-0.125,0.3125
1582293983302770,-0.1875,0.375,0.3125
1582293983323723,0.75,0.3125,0.75
1582293983341472,0.625,0.5,0.875
1582293983364573,0.4375,0.5625,1.0625
1582293983383847,0.625,0.3125,1.6875
1582293983401313,2.6875,0,1.6875
1582293983424262,4.125,-0.625,1.5
1582293983444401,4.25,-1.0625,1.5625
1582293983469132,3.3125,-0.625,1.5625
1582293983484338,2.875,0.375,1.4375
1582293983507156,2.1875,0.875,1.375
1582293983520998,0.75,0.4375,0.625
1582293983543129,-0.3125,-0.4375,0.125
1582293983563889,-0.875,-1.3125,-0.9375
1582293983580841,-1.3125,-1.3125,-1.5625
1582293983603819,-2.3125,-0.625,-1.8125
1582293983617782,-3.125,0.1875,-1.75
1582293983640672,-3.0625,0.9375,-1.5
1582293983663623,-2.1875,1.4375,-0.9375
1582293983677574,-1.125,1.8125,-0.1875
1582293983700572,-0.125,1.8125,0.5
1582293983723512,0.625,1.4375,0.875
1582293983737706,1.125,0.875,0.75
1582293983761349,1.1875,0.0625,0.875
1582293983783295,1.5,-0.5,0.75
1582293983797559,2,-0.25,0.3125
1582293983821189,2.25,0.375,0.4375
1582293983843325,2.1875,0.5625,0.5625
1582293983864083,1.625,0.4375,0.0625
1582293983881038,0.75,-0.1875,-0.375
1582293983903299,0.3125,-1,-0.8125
1582293983925119,0.375,-1,-1.4375
1582293983940927,-0.4375,-1.3125,-1.8125
1582293983963822,-1.5625,-1.5625,-1.8125
1582293983984855,-2.1875,-1.4375,-2
1582293984001012,-2.5,-0.875,-1.75
1582293984023647,-2.5,0.25,-1.125
1582293984044787,-1.625,1,-0.3125
1582293984060966,-0.4375,1.125,0.375
1582293984083540,0.6875,0.75,1.25
1582293984104432,1.6875,-0.0625,1.8125
1582293984120413,2.625,-0.625,2.3125
1582293984143565,3.25,-0.6875,2.125
1582293984164272,2.6875,-0.8125,1.8125
1582293984181225,1.875,-0.25,1.375
1582293984203168,1.1875,-0.3125,0.5
1582293984224115,0.25,-0.4375,-0.125
1582293984241066,-1.1875,-0.1875,-0.375
1582293984263067,-1.8125,-0.125,-1
1582293984285035,-2,0,-1.5625
1582293984300955,-1.8125,0.0625,-1.375
1582293984323844,-0.875,-0.1875,-1.375
1582293984345786,-0.6875,-0.3125,-1.125
1582293984360756,-1,-0.25,-0.6875
1582293984383686,-0.4375,-0.25,-0.5625
1582293984405627,0.4375,0.0625,-0.9375
1582293984426787,-0.1875,0,-1.3125
1582293984443593,-2.0625,-0.1875,-1.8125
1582293984465464,-3.75,0.25,-2.875
1582293984480435,-5.8125,0.8125,-5.625
1582293984503611,-10,0.4375,-10.25
1582293984526304,-15.125,-0.4375,-13.875
1582293984540270,-21.0625,-1.8125,-14.875
1582293984563216,-23.4375,-1.8125,-16.25
1582293984586148,-22.5625,0.0625,-16.0625
1582293984607293,-18.8125,0.5625,-13.25
1582293984623185,-7.625,0.5,-7.5625
1582293984646125,-5.625,1.375,-5.3125
1582293984667122,-0.9375,1.875,-0.75
1582293984683883,1.5,1.4375,2.625
1582293984705827,6.5625,1.8125,4.625
1582293984719986,8.1875,0.25,7.0625
1582293984743720,11.1875,-1.4375,7.875
1582293984765666,9,-3.25,6.5
1582293984780624,5.625,-3.5625,5.625
1582293984803560,4,-2.9375,3.9375
1582293984825551,2.75,-1.75,2.125
1582293984847453,1.25,-0.375,0.875
1582293984863879,-0.8125,0.875,-0.0625
1582293984892525,-2,1.6875,-0.6875
1582293984907510,-1.9375,1.6875,-1.3125
1582293984931220,-1.9375,1.625,-1.5
1582293984946189,-2.0625,1.1875,-1.75
1582293984967258,-2.3125,1,-1.9375
1582293984983145,-2.5625,0.75,-2
1582293985006085,-2.5,0.6875,-2.125
1582293985027156,-2.4375,0.875,-2.0625
1582293985042973,-2.875,0.75,-1.9375
1582293985066119,-2.5625,0.375,-1.625
1582293985087196,-1.5625,-0.125,-1.375
1582293985103759,-0.75,-0.4375,-0.8125
1582293985125703,0.3125,-0.5,-0.0625
1582293985146701,1.4375,-0.6875,0.625
1582293985163598,1.875,-0.625,1.3125
1582293985185650,2.125,-0.375,1.75
1582293985207070,2.625,-0.375,1.75
1582293985223438,2.5,-0.125,1.8125
1582293985246390,2.0625,-0.0625,1.5625
1582293985268321,1.8125,-0.125,1.1875
1582293985283332,1.9375,-0.375,1.0625
1582293985306271,1.8125,-1.375,0.4375
1582293985328529,0.5,-1.75,0.9375
1582293985344188,0.125,-1.9375,0.5
1582293985366055,0.125,-1.9375,0.25
1582293985387999,0.5625,-1.875,0.3125
1582293985402958,0.8125,-1.875,0.625
1582293985426386,1.875,-1.625,0.625
1582293985447977,1.625,-1.375,0.5
1582293985462806,1.25,-1.125,0.625
1582293985485740,1.0625,-1.1875,0.75
1582293985508890,1.875,-1.25,0.5625
1582293985522937,1.5625,-1.375,0.375
1582293985545946,0.875,-0.875,0.3125
1582293985568787,0.8125,-0.25,0.3125
1582293985582541,0.875,-0.0625,0.1875
1582293985605759,0.8125,0.125,0.1875
1582293985628408,1,-0.125,0.5
1582293985642832,1.1875,-0.1875,0.4375
1582293985666253,0.9375,-0.25,0.5
1582293985688492,0.9375,-0.75,0.9375
1582293985703157,2.25,-1.375,1
1582293985726156,3.1875,-1.75,0.6875
1582293985748032,2.5,-1.8125,1.0625
1582293985769174,2.1875,-1.5,0.8125
1582293985785988,1.5625,-1.125,0.125
1582293985808871,-0.3125,-0.75,0.5625
1582293985829854,-0.25,0,0.625
1582293985845781,0.125,0.25,0.6875
1582293985868710,1.25,0.3125,0.8125
1582293985889708,1.4375,0.0625,0.6875
1582293985905672,0,-0.1875,0.875
1582293985928550,0.0625,0.0625,1.4375
1582293985949978,1.6875,0.5625,0.5
1582293985965456,0.875,0.625,0.875
1582293985988393,0.9375,0.125,1.5
1582293986009474,1,-0.1875,0.9375
1582293986026289,1.4375,-0.3125,0.9375
1582293986048233,2.125,-0.6875,0.875
1582293986069362,1.5,-0.9375,1.1875
1582293986086134,1.625,-1,1.125
1582293986108127,1.6875,-1.0625,0.375
1582293986129244,0.75,-0.75,-0.1875
1582293986146035,-0.125,-0.3125,-1.0625
1582293986168125,-0.9375,0.375,-1.5
1582293986190853,-1.1875,0.3125,-0.1875
1582293986206223,1.3125,0.1875,0
1582293986228785,1.6875,-0.0625,0
1582293986250700,1.375,-0.25,0.6875
1582293986265650,1.0625,-0.1875,1.0625
1582293986288608,1.75,-0.375,0.9375
1582293986311586,1.75,-0.0625,0.875
1582293986325547,0.375,0.1875,0.875
1582293986348428,0.3125,0.6875,0.5
1582293986371366,-0.125,1.125,0.25
1582293986385369,-0.125,1.0625,-0.125
1582293986408273,-0.6875,0.625,0.125
1582293986431206,-0.875,0.0625,0
1582293986445404,-0.5,-0.0625,-0.125
1582293986468469,-0.5,-0.25,-0.1875
1582293986491291,-0.4375,-0.3125,-0.5625
1582293986505022,-0.5,-0.5,-1.0625
1582293986528012,-1.25,-0.75,-1.1875
1582293986550950,-2,-0.5625,-0.5625
1582293986564897,-1.5,-0.25,-0.25
1582293986588827,0.125,-0.1875,-0.125
1582293986611077,1.0625,-0.25,0.1875
1582293986631721,0.8125,-0.3125,0.5625
1582293986648625,1,-0.8125,0.875
1582293986670822,1.5,-0.9375,0.875
1582293986685525,1.5625,-0.125,1.3125
1582293986708519,2.3125,-0.125,1.3125
1582293986730405,2.3125,0.1875,1.25
1582293986752403,1.5,0.1875,1
1582293986768308,1.0625,0,0.75
1582293986791242,0.5625,-0.1875,0.25
1582293986812366,0.6875,-0.4375,-0.1875
1582293986828286,0.3125,-0.5625,-0.6875
1582293986851083,-1.125,-0.625,-0.75
1582293986872261,-1,-0.625,-0.6875
1582293986888045,-0.25,-0.6875,-0.5625
1582293986893969,0.0625,-0.9375,-0.8125
1582293986916120,-0.4375,-0.3125,-0.4375
1582293986939072,-0.375,-0.3125,-0.375
1582293986961788,-0.25,-0.0625,-0.0625
1582293986976839,0.6875,-0.3125,0.125
1582293986999228,-0.0625,-0.25,-0.125
1582293987013836,-0.4375,-0.1875,-0.0625
1582293987036776,-0.0625,-0.25,-0.3125
1582293987058733,-0.375,-0.375,-0.3125
1582293987073488,-0.4375,-0.1875,-0.25
1582293987096703,-0.5625,-0.25,-0.4375
1582293987119422,-0.875,-0.25,-0.4375
1582293987133736,-0.8125,-0.25,-0.25
1582293987156458,-0.0625,-0.1875,-0.1875
1582293987174234,0,-0.3125,-0.125
1582293987194365,0.125,-0.5625,-0.125
1582293987216303,-0.0625,-0.1875,0.25
1582293987234390,-0.125,-0.4375,-0.3125
1582293987254049,0.125,-0.4375,-0.0625
1582293987276092,0.0625,-0.375,-0.6875
1582293987293903,-0.6875,-0.0625,-0.375
1582293987314118,-1.125,0.3125,-0.4375
1582293987336784,-1.3125,0.125,-0.5625
1582293987358769,-1.0625,0,-0.5
1582293987373728,-0.6875,0,-0.4375
1582293987396678,-0.4375,0,-0.375
1582293987414168,-0.1875,0.125,-0.4375
1582293987433720,-0.0625,0.1875,-0.25
1582293987456612,0.125,-0.0625,-0.0625
1582293987474420,0.375,-0.25,0.125
1582293987494409,0.4375,-0.1875,-0.0625
1582293987516451,0.125,-0.1875,0
1582293987534648,0.0625,-0.4375,0
1582293987554200,0.5625,-0.4375,-0.125
1582293987576342,0.4375,-0.4375,-0.125
1582293987594096,0.125,-0.3125,-0.3125
1582293987621024,0.0625,0,-0.0625
1582293987636162,0.375,0,0
1582293987654577,0.6875,-0.1875,-0.25
1582293987674183,0.1875,-0.125,-0.25
1582293987695866,0,-0.1875,-0.375
1582293987713823,0.5,-0.25,-0.3125
1582293987734151,1.3125,0.25,-0.0625
1582293987756718,1.9375,0.6875,0.0625
1582293987774679,1.75,-0.6875,0.875
1582293987795625,2.3125,-0.75,0.5625
1582293987816692,1.6875,-0.8125,0.75
1582293987834625,2.25,-1.125,0.875
1582293987855395,2.6875,-1.1875,1.125
1582293987876575,2,-1,1.5
1582293987894292,2.1875,0.0625,1
1582293987915497,1.9375,0.4375,0.75
1582293987936222,1.375,0.375,0.4375
1582293987954131,0.375,0.1875,0
1582293987975083,-0.5625,-0.0625,-0.75
1582293987996029,-1.375,-0.375,-0.875
1582293988019957,-1.5,-0.3125,-1.1875
1582293988034920,-2,-0.5,-1.5625
1582293988056857,-2.1875,-0.4375,-1.0625
1582293988074192,-2.25,-0.3125,-0.8125
1582293988096763,-1.3125,0,-0.3125
1582293988116747,-0.5,0.4375,0.25
1582293988133652,-0.375,0.3125,-0.125
1582293988156642,-1.0625,0.0625,0.0625
1582293988176754,-1.125,-0.375,-0.3125
1582293988194610,-0.8125,-0.5,-0.6875
1582293988222517,-0.9375,-0.25,-0.875
1582293988236801,-1.3125,-0.1875,-1.125
1582293988254327,-1.125,0,-0.8125
1582293988276565,-0.8125,-0.1875,-0.375
1582293988296650,-0.0625,-0.4375,-0.125
1582293988314173,0.375,-0.4375,0.125
1582293988337106,0.375,-0.375,0.25
1582293988356109,0.375,-0.375,0.0625
1582293988374027,0.125,-0.3125,0.0625
1582293988397133,-0.125,-0.625,-0.25
1582293988416233,-0.25,-0.8125,-0.4375
1582293988433849,-0.4375,-0.6875,-0.8125
1582293988456786,-1.0625,-0.875,-0.625
1582293988476854,-1.1875,-0.9375,-0.5
1582293988494684,-1.0625,-0.625,-1.5625
1582293988516690,-1.875,-0.9375,-1.25
1582293988536899,-2.125,-0.625,-1.3125
1582293988553528,-1.75,-0.25,-1.4375
1582293988582555,-1.3125,-0.375,-0.6875
1582293988597410,-0.5,-0.5,-0.6875
1582293988613656,-0.4375,-0.5,-0.5625
1582293988636307,-0.625,-0.5,-0.125
1582293988657306,-0.3125,-0.1875,-0.0625
1582293988673698,-0.125,0.0625,0.4375
1582293988696156,0.625,-0.125,0.25
1582293988717329,-0.0625,-0.125,0.0625
1582293988739441,-0.875,-0.3125,0.125
1582293988755987,-0.75,-0.1875,-0.25
1582293988777137,-0.0625,-0.1875,-0.1875
1582293988793108,-0.125,-0.3125,-0.3125
1582293988816112,-0.4375,-0.3125,-0.5
1582293988836814,-0.6875,-0.1875,-0.1875
1582293988853724,0.125,-0.375,-0.375
1582293988875724,0.25,-0.25,-0.1875
1582293988897461,0.25,-0.25,-0.25
1582293988913626,-0.125,0.0625,-0.125
1582293988935566,-0.375,0.25,0.125
1582293988956451,-0.125,0.3125,0.375
1582293988973404,0.25,0.1875,0.0625
1582293988995410,0.375,-0.1875,0.0625
1582293989017525,0.6875,-0.125,0.0625
1582293989032457,0.8125,0,-0.0625
1582293989056182,0.3125,0.0625,0.0625
1582293989078123,-0.25,0.375,0.0625
1582293989093086,-0.25,0.4375,0.0625
1582293989116022,0,0.375,0.125
1582293989137969,-0.1875,0.125,0.375
1582293989153227,0.0625,0,0.3125
1582293989176099,0.125,-0.25,0.1875
1582293989198800,0.0625,-0.5625,0.5
1582293989213296,-0.0625,-0.375,0.375
1582293989235708,-0.0625,-0.1875,0.375
1582293989258640,-0.125,0.125,0.375
1582293989272608,-0.4375,0.25,0.25
1582293989295753,-0.25,0.3125,0.0625
1582293989318515,-0.4375,0.0625,-0.0625
1582293989333461,-0.375,0.0625,-0.25
1582293989355535,-0.3125,0.0625,-0.25
1582293989378376,-0.375,0.125,-0.125
1582293989392495,-0.1875,0,-0.0625
1582293989416219,0.0625,-0.1875,-0.0625
1582293989438207,0.3125,-0.375,0.125
1582293989453120,0.6875,-0.125,0.25
1582293989482252,0.4375,0,0.25
1582293989497999,0.0625,-0.125,-0.0625
1582293989512961,-0.75,-0.25,-0.125
1582293989535945,-0.875,-0.4375,-0.3125
1582293989558068,-0.4375,-0.375,-0.375
1582293989579790,0,-0.0625,-0.4375
1582293989595739,0.125,-0.0625,0
1582293989618677,0.1875,-0.375,0.0625
1582293989639819,0.3125,-0.375,0.25
1582293989655808,0.625,-0.375,0.25
1582293989684653,1,-0.3125,0.3125
1582293989699609,0.8125,-0.25,0.5
1582293989715587,0.125,-0.125,0.4375
1582293989738403,0,-0.0625,0.1875
1582293989759495,0.1875,-0.0625,0.1875
1582293989776261,0.25,0.0625,-0.125
1582293989798201,0.0625,0.1875,0
1582293989819200,-0.125,0.3125,-0.125
1582293989843519,0.0625,0.375,-0.1875
1582293989858039,0,0.25,-0.0625
1582293989879311,0.0625,0.0625,-0.0625
1582293989895955,0.125,-0.1875,0
1582293989918069,0.0625,-0.3125,0.0625
1582293989939893,0.5,-0.3125,0.0625
1582293989956772,0.6875,-0.25,0.1875
1582293989978728,0.4375,-0.3125,0
1582293990000657,-0.375,-0.5625,-0.1875
1582293990015617,-0.0625,-0.8125,0.25
1582293990044750,0.5,-0.625,-0.0625
1582293990060939,0.125,-0.3125,-0.4375
1582293990075654,-0.3125,-0.25,-0.375
1582293990098445,-0.8125,-0.4375,-0.3125
1582293990127473,-0.0625,-0.3125,-0.0625
1582293990136293,0.4375,-0.4375,-0.1875
1582293990158240,0.125,-0.5625,-0.3125
1582293990181171,-0.1875,-0.25,-0.3125
1582293990195237,-0.3125,0,-0.1875
1582293990218073,0.125,0.25,-0.125
1582293990241274,0.125,0.0625,-0.375
1582293990255373,-0.25,-0.0625,-0.125
1582293990278436,-0.125,-0.0625,-0.3125
1582293990301045,0.1875,0.0625,-0.1875
1582293990314901,0.3125,0.0625,-0.125
1582293990338750,0.3125,0.0625,-0.125
1582293990360697,0.25,-0.0625,-0.1875
1582293990374851,0.125,-0.25,-0.125
1582293990398590,0.125,-0.0625,-0.25
1582293990420537,0.0625,-0.25,-0.3125
1582293990435491,0,-0.375,-0.1875
1582293990458748,0,-0.3125,-0.375
1582293990480370,0,-0.1875,-0.5625
1582293990502503,-0.3125,0.0625,-0.3125
1582293990518275,-0.9375,0.0625,-0.375
1582293990541250,-1,-0.1875,-0.4375
1582293990562162,-0.5,-0.25,-0.3125
1582293990578112,0.0625,-0.0625,-0.375
1582293990601049,0.125,0,-0.125
1582293990622198,0.3125,0.125,-0.0625
1582293990638358,0.125,-0.0625,0.125
1582293990660932,0.4375,-0.1875,0.25
1582293990689873,0.8125,-0.125,0.25
1582293990698791,0.5625,0.125,0.375
1582293990720731,0.4375,0.125,0.375
1582293990741915,0.125,-0.25,0.3125
1582293990758676,0.6875,-0.8125,-0.0625
1582293990780845,0.125,-0.6875,-0.125
1582293990801716,0.25,-1.0625,0
1582293990818518,0.25,-0.5625,0.0625
1582293990840598,0.375,0.125,-0.0625
1582293990862362,0.25,-0.375,-0.0625
1582293990878312,0.0625,-0.4375,-0.4375
1582293990901245,-0.5,-0.375,-0.5625
1582293990922381,-0.375,-0.1875,-0.5625
1582293990938145,-0.375,0.1875,-0.75
1582293990961141,-0.875,0.125,-0.5
1582293990983077,-0.5625,-0.0625,-0.375
1582293991006021,0.1875,0.0625,-0.5625
1582293991027089,0.375,0.3125,-0.5
1582293991043063,0.375,0.25,-0.5625
1582293991065854,0,-0.125,-0.1875
1582293991081032,0.0625,-0.625,0.0625
1582293991103706,0.4375,-0.9375,0.375
1582293991117722,1,-0.375,0.1875
1582293991141055,1.5625,-0.375,-0.0625
1582293991163549,0.625,-0.6875,0.4375
1582293991177512,0.125,-0.4375,0.3125
1582293991200890,1.1875,-0.5625,-0.3125
1582293991223442,0.75,-0.5625,-0.375
1582293991237736,-0.1875,-0.75,-0.6875
1582293991261282,-0.1875,-0.9375,-1
1582293991283462,-0.5625,-0.8125,-1.125
1582293991297189,-0.75,-0.4375,-1.1875
1582293991321193,-0.5,-0.25,-1.0625
1582293991343513,-1.125,-0.25,-0.875
1582293991358165,-0.875,-0.3125,-0.75
1582293991380963,-0.1875,-0.5,-0.5
1582293991402949,0.25,-0.4375,-0.375
1582293991417930,0.4375,-0.5,-0.25
1582293991440807,0.3125,-0.375,-0.3125
1582293991463740,-0.125,-0.125,-0.25
1582293991484877,0,-0.0625,-0.1875
1582293991501009,0.0625,-0.1875,-0.1875
1582293991523648,-0.4375,-0.0625,-0.25
1582293991544756,-0.6875,-0.125,-0.3125
1582293991560524,-0.4375,-0.0625,-0.625
1582293991590614,-0.5625,-0.1875,-0.375
1582293991604560,0,-0.5625,-0.625
1582293991620521,-0.3125,-0.5625,-0.625
1582293991643265,-0.9375,-0.5,-0.5
1582293991664666,-0.8125,-0.5625,-0.5625
1582293991681160,-0.0625,-0.5625,-0.5
1582293991703109,-0.1875,-0.375,-0.625
1582293991725043,-0.5625,-0.375,-0.6875
1582293991741054,-0.125,-0.375,-0.4375
1582293991762940,-0.0625,-0.0625,-0.4375
1582293991784969,-0.375,0.1875,-0.25
1582293991800894,-0.0625,0.25,-0.1875
1582293991823779,0.375,0,-0.125
1582293991844798,0.4375,-0.125,0.125
1582293991859873,0.1875,-0.1875,0.1875
1582293991883617,0.125,0,0.125
1582293991906609,0.1875,0.25,0.1875
1582293991911605,0.1875,0.125,0.1875
1582293991926884,0.3125,-0.0625,0.1875
1582293991949443,0.1875,-0.125,0.125
1582293991971599,0.1875,-0.125,0.3125
1582293991986535,0.3125,-0.25,0
1582293992009347,0.5,-0.25,0
1582293992031268,0.375,-0.0625,0.0625
1582293992046183,0.1875,0.125,-0.1875
1582293992070122,-0.1875,0.125,0.0625
1582293992091225,-0.75,0.25,0.125
1582293992106184,-0.4375,0.0625,-0.1875
1582293992128971,-0.0625,-0.1875,-0.125
1582293992151100,-0.0625,-0.25,-0.1875
1582293992165902,0.0625,0.0625,-0.1875
1582293992189042,-0.25,0.375,-0.1875
1582293992211280,-0.25,0.1875,-0.125
1582293992229204,0,0.3125,0
1582293992248844,0.3125,0.0625,0.125
1582293992271646,0.0625,0.0625,0.1875
1582293992286723,-0.125,0.0625,0.0625
1582293992309004,0.1875,0,-0.0625
1582293992331846,0.1875,-0.25,0.0625
1582293992347547,0.0625,-0.3125,-0.0625
1582293992370540,-0.1875,-0.375,-0.125
1582293992391459,-0.3125,-0.125,-0.0625
1582293992406539,-0.1875,0.0625,-0.25
1582293992429305,-0.1875,0.0625,-0.1875
1582293992454091,-0.4375,0,-0.4375
1582293992466111,-0.4375,0,-0.3125
1582293992489199,-0.25,-0.0625,-0.375
1582293992511178,-0.5,0,-0.375
1582293992527952,-0.5625,0,-0.25
1582293992549029,-0.0625,-0.0625,-0.375
1582293992571778,-0.0625,0.0625,-0.3125
1582293992587791,-0.625,0.0625,-0.1875
1582293992608907,-0.5,0,-0.3125
1582293992631854,-0.4375,0.1875,-0.4375
1582293992647732,-0.75,0.375,-0.1875
1582293992668765,-0.5,0.25,-0.25
1582293992686481,-0.5,0.375,-0.25
1582293992707474,-1,0.125,-0.3125
1582293992736486,-0.125,-0.4375,0.1875
1582293992746328,0.5625,-0.125,-0.25
1582293992767468,-1.75,0.5,-0.375
1582293992789195,-1.625,0.0625,-0.25
1582293992807147,1.125,-0.6875,-0.5
1582293992828098,0.5,-0.0625,-0.3125
1582293992849221,-1.8125,0.125,-0.125
1582293992867102,-0.875,0.125,-0.375
1582293992889580,0.0625,0.125,-0.5
1582293992909134,-0.75,0.1875,-0.375
1582293992926835,-1,0.0625,-0.4375
1582293992949196,-0.5625,0.0625,-0.375
1582293992970035,-0.375,0,-0.25
1582293992986670,-0.1875,-0.0625,-0.0625
1582293993009606,0.3125,-0.0625,-0.125
1582293993028562,0.625,-0.0625,-0.1875
1582293993046585,0.25,0,0.1875
1582293993069445,-0.0625,-0.125,0.0625
1582293993088635,0.125,0,-0.125
1582293993106345,0.1875,0.25,-0.1875
1582293993129557,-0.0625,0.0625,-0.5
1582293993149280,-0.1875,-0.1875,-0.375
1582293993166185,-0.1875,-0.375,-0.4375
1582293993189126,-0.1875,-0.1875,-0.3125
1582293993209288,-0.125,-0.0625,-0.25
1582293993227178,0.25,-0.125,-0.375
1582293993249653,0.3125,-0.1875,-0.3125
1582293993268913,0.0625,-0.375,-0.3125
1582293993286862,-0.1875,-0.3125,-0.3125
1582293993308974,0.125,-0.0625,-0.375
1582293993328760,0.25,0,-0.1875
1582293993346702,0.3125,0,-0.125
1582293993369641,0.125,-0.0625,-0.0625
1582293993388710,0.125,-0.0625,-0.125
1582293993406716,0.3125,-0.125,-0.125
1582293993429567,0.1875,-0.125,-0.125
1582293993450426,0.0625,-0.125,-0.125
1582293993467043,-0.125,0.1875,-0.0625
1582293993496302,-0.25,0.125,-0.25
1582293993510327,-0.125,0,-0.25
1582293993532352,-0.0625,-0.125,-0.3125
1582293993548169,0,-0.125,-0.25
1582293993569153,-0.125,-0.3125,-0.125
1582293993586243,0,-0.25,-0.125
1582293993608113,0,-0.25,-0.0625
1582293993628956,0.125,-0.5625,0
1582293993652920,0.3125,-0.4375,-0.1875
1582293993668844,0.125,-0.375,-0.375
1582293993689994,0.125,-0.25,-0.1875
1582293993705747,0.125,-0.25,0.125
1582293993728694,0,-0.4375,0
1582293993750623,0.625,-1.125,-0.125
1582293993765837,2.25,-1.5625,0
1582293993788575,3.375,-2.3125,-0.25
1582293993810638,2.4375,-2.375,-1.3125
1582293993825880,0.0625,-2.4375,-1.4375
1582293993856339,-0.9375,-3.4375,-1.75
1582293993870305,-2.3125,-3,-2.3125
1582293993886260,-5.5,-1.625,-2.5625
1582293993908205,-7.1875,0.125,-2.3125
1582293993931140,-6.375,1.1875,-1.9375
1582293993945108,-4.3125,2.5625,-1.6875
1582293993968134,-3.3125,3.75,-0.75
1582293993991034,-2.5,3.875,-0.0625
1582293994004950,0,3.5,0.6875
1582293994027932,1.9375,2.5625,1.1875
1582293994050825,2.125,1.1875,1.5625
1582293994064939,0.5,0.4375,1.4375
1582293994088738,-1.625,-0.375,0.875
1582293994111657,-3.6875,-0.625,0
1582293994125618,-4.125,-1.0625,-1.0625
1582293994148609,-5.5,-0.8125,-2.1875
1582293994170509,-6.5625,-0.0625,-2.6875
1582293994185458,-6.625,-0.0625,-3.125
1582293994208403,-6.5,0.25,-2.8125
1582293994230629,-6.875,0.5,-1.9375
1582293994245310,-5.9375,0.0625,-1.125
1582293994268419,-3.4375,-0.75,-0.125
1582293994291227,-0.9375,-1.125,0.875
1582293994312220,1.25,-1.125,2
1582293994328089,2.9375,-1.3125,2.625
1582293994351030,3.5625,-1.1875,2.875
1582293994372154,3,-0.8125,3.0625
1582293994388045,2.4375,-0.875,2.75
1582293994411045,2.1875,-0.875,1.5625
1582293994431941,1.25,-0.5,0.75
1582293994448756,-0.125,-0.375,-0.5
1582293994470713,-2,-0.375,-1.6875
1582293994492221,-3.375,-0.0625,-2.3125
1582293994508593,-3.6875,0.0625,-3.0625
1582293994530534,-3.5625,0.625,-2.875
1582293994551764,-3.0625,0.4375,-2.5
1582293994568434,-1.375,-0.5625,-2
1582293994590751,0.5,-1.25,-1
1582293994612315,1.6875,-1.1875,0.125
1582293994628284,2.8125,-0.875,0.875
1582293994651212,3.4375,-0.375,1.375
1582293994672537,3.4375,0,1.8125
1582293994688113,3.3125,0.0625,2.0625
1582293994711113,3.4375,0.0625,1.875
1582293994733053,2.8125,0,1.375
1582293994748035,1.5,0.125,0.9375
1582293994770946,0.125,0.25,0.25
1582293994793832,-0.75,0.1875,-0.5625
1582293994808793,-1.375,0,-0.9375
1582293994830739,-1.8125,0.1875,-1.25
1582293994853725,-2,0.625,-1.125
1582293994868633,-1.4375,0.6875,-0.9375
1582293994890584,-0.3125,0.5625,-0.6875
1582293994913511,0.125,-0.125,-0.3125
1582293994927734,0.4375,-1.125,-0.0625
1582293994958400,0.8125,-1.625,-0.0625
1582293994973357,1.0625,-1.3125,-0.0625
1582293994987465,0.3125,-0.8125,-0.125
1582293995011265,-0.25,-0.0625,-0.25
1582293995034189,-0.125,0.25,-0.375
1582293995048152,-0.0625,0.4375,-0.1875
1582293995071125,-0.4375,0.5,-0.1875
1582293995093131,-0.1875,0.4375,0.0625
1582293995108045,0.4375,0.1875,0.25
1582293995130932,0.75,0.0625,0.5
1582293995153052,0.5,0.25,0.5625
1582293995167857,0.4375,0,0.5
1582293995190997,0.8125,0.0625,0.3125
1582293995213708,0.625,0.0625,0.0625
1582293995234653,0.1875,-0.0625,-0.125
1582293995250611,0,-0.125,-0.25
1582293995273600,-0.3125,-0.375,-0.625
1582293995294862,-0.6875,-0.4375,-0.6875
1582293995310901,-0.625,-0.5,-0.8125
1582293995333598,-0.25,-0.5,-0.9375
1582293995354525,-0.25,-0.125,-0.5625
1582293995371286,-0.75,0.0625,-0.1875
1582293995393231,-0.125,-0.125,-0.1875
1582293995414384,0.3125,-0.25,-0.0625
1582293995431126,0.4375,-0.1875,0.25
1582293995453068,0.5,-0.3125,0.0625
1582293995474097,0.25,-0.125,-0.0625
1582293995491065,0.0625,0.1875,-0.0625
1582293995513079,0.1875,0.375,-0.0625
1582293995534962,0.125,0.375,-0.1875
1582293995550856,-0.4375,0.375,-0.625
1582293995573808,-0.625,0.0625,-0.5625
1582293995594895,-0.1875,0.125,-0.5625
1582293995610653,0.1875,-0.0625,-0.625
1582293995633583,-0.0625,-0.4375,-0.3125
1582293995655758,0.3125,-0.8125,-0.1875
1582293995670610,0.6875,-0.8125,-0.0625
1582293995693653,0.9375,-0.625,-0.0625
1582293995722455,0.9375,-0.375,-0.1875
1582293995731323,0.5,-0.4375,-0.375
1582293995753266,0.0625,-0.625,-0.5625
1582293995782316,-0.1875,-0.4375,-0.75
1582293995791218,-0.3125,-0.3125,-0.875
1582293995813103,-0.1875,-0.125,-0.875
1582293995836093,-0.1875,-0.125,-0.625
1582293995850011,-0.1875,-0.0625,-0.375
1582293995879924,0.125,-0.1875,-0.4375
1582293995895893,0.4375,-0.25,-0.25
1582293995909900,0.6875,-0.3125,-0.1875
1582293995933784,0.5,-0.375,-0.1875
1582293995955724,0.125,-0.375,-0.25
1582293995969870,-0.0625,-0.375,-0.3125
1582293995993687,0.0625,-0.5,-0.25
1582293996015639,0.1875,-0.4375,-0.375
1582293996030521,0,-0.375,-0.4375
1582293996053633,-0.25,-0.4375,-0.3125
1582293996076401,-0.1875,-0.5,-0.5
1582293996090413,-0.25,-0.75,-0.625
1582293996121279,-0.375,-0.6875,-0.625
1582293996136239,-0.3125,-0.4375,-0.75
1582293996157379,-0.125,-0.125,-0.5625
1582293996173142,-0.25,0.0625,-0.1875
1582293996196079,-0.6875,-0.0625,-0.125
1582293996217233,-0.5,-0.3125,-0.25
1582293996233090,0,-0.5,-0.125
1582293996255948,0.25,-0.5,-0.3125
1582293996277069,-0.125,-0.125,-0.375
1582293996293089,-0.4375,0.0625,-0.5
1582293996315765,-0.1875,0.25,-0.3125
1582293996336758,0.125,0.5625,-0.1875
1582293996353659,0.125,0.625,0.3125
1582293996375599,0.25,0.4375,0.625
1582293996397598,0.9375,0.375,0.5625
1582293996413496,1.8125,-0.3125,0.5625
1582293996435707,2.0625,-1.5625,0.375
1582293996457462,0.25,-2.375,-0.4375
1582293996473395,-1.75,-2.375,-1.0625
1582293996495414,-2.375,-1.75,-1.75
1582293996517416,-1.9375,-0.0625,-2.125
1582293996533179,-1.75,1.5625,-1.75
1582293996556114,-1.9375,2.5,-0.9375
1582293996577238,-1.3125,2.5625,0.1875
1582293996593315,0.25,1.8125,1.1875
1582293996615956,2.4375,1.0625,2
1582293996638086,3.625,0.25,2.3125
1582293996653080,4,-0.25,1.875
1582293996675857,2.875,-0.3125,1.3125
1582293996698735,1.6875,-0.4375,0.8125
1582293996713693,0.4375,-0.6875,0.0625
1582293996735687,-0.125,-0.5625,-0.625
1582293996758635,-0.75,-0.375,-1.25
1582293996772731,-0.875,-0.625,-1.125
1582293996795474,-0.5,-0.75,-0.6875
1582293996818416,0.25,-0.8125,-0.5
1582293996832375,0.625,-0.6875,0.0625
1582293996856314,1.3125,-0.5,0.6875
1582293996878314,1.8125,-0.75,0.75
1582293996893264,2.0625,-0.625,0.875
1582293996916151,1.75,-0.0625,1
1582293996921536,1.5625,0.375,0.9375
1582293996944086,0.875,0.375,1.3125
1582293996960172,0.4375,0.4375,1.125
1582293996981170,0.875,0,1.1875
1582293997004137,1.0625,-0.3125,1
1582293997019969,0.625,-0.1875,0.9375
1582293997041816,0.8125,-0.4375,0.4375
1582293997064125,-0.125,-0.875,0.0625
1582293997079717,-0.4375,-1.0625,0
1582293997101827,-0.0625,-0.375,-0.0625
1582293997131716,0.125,0.6875,0.1875
1582293997140551,0.125,1.375,0.875
1582293997168535,0.5,1.0625,1.3125
1582293997183649,0.75,0.3125,1.4375
1582293997200621,1.75,-0.125,1.375
1582293997221544,2,-1,0.3125
1582293997243486,0,-2.4375,-1.3125
1582293997260294,-4.375,-3.6875,-2.875
1582293997281371,-6.75,-3.125,-3.5625
1582293997304324,-5.875,-0.8125,-3.6875
1582293997320347,-3.4375,2.5,-3.0625
1582293997341161,-0.5,4.1875,-1.3125
1582293997364167,2.0625,3.875,1.125
1582293997379911,3.875,2.8125,3.25
1582293997401081,5.4375,0.875,4.0625
1582293997424143,5.75,-1.5,4.25
1582293997439967,5.5,-2.75,3.375
1582293997461105,5,-3.5,1.75
1582293997483630,2.9375,-3,0.4375
1582293997499594,0.3125,-1.6875,-0.6875
1582293997521537,-2.375,-0.125,-1.625
1582293997543970,-3.5625,1.125,-1.9375
1582293997561484,-2.875,1.3125,-2
1582293997581588,-2.5,0.5625,-1.75
1582293997603568,-1.875,0,-1.125
1582293997621390,-0.375,-0.6875,-0.75
1582293997641420,0.8125,-0.875,-0.125
1582293997664292,1.1875,-0.6875,0.5625
1582293997682108,1.3125,-0.6875,0.8125
1582293997701108,1.0625,-0.3125,0.625
1582293997724212,0.625,0.125,0.1875
1582293997742081,0.0625,0.4375,-0.25
1582293997761057,-0.9375,0.4375,-0.4375
1582293997784026,-2.5,0.3125,-0.8125
1582293997801800,-2.9375,0.3125,-1.0625
1582293997821793,-2.4375,0.4375,-0.875
1582293997843732,-1.3125,0.625,-0.8125
1582293997861696,-0.6875,0.6875,-0.4375
1582293997881769,-0.4375,0.25,-0.0625
1582293997903706,0.0625,-0.0625,-0.0625
1582293997921467,0.5,-0.125,0.125
1582293997941641,0.6875,-0.25,0.1875
1582293997963777,0.25,-0.5,0
1582293997981852,-0.3125,-0.375,-0.25
1582293998001588,-1,-0.3125,-0.8125
1582293998025234,-1.125,-0.375,-0.75
1582293998042140,-0.9375,0.125,-0.625
1582293998061136,-0.4375,0.5625,-0.3125
1582293998084030,0,0.5,0.1875
1582293998102069,0.875,0.1875,0.875
1582293998121420,1.9375,-0.0625,1.125
1582293998143876,2.625,-0.4375,1.25
1582293998161818,2.25,-0.6875,1
1582293998182823,1.3125,-0.9375,0.5
1582293998204135,0.3125,-1.5,-0.1875
1582293998221660,-0.25,-1.375,-0.8125
1582293998249061,-0.875,-0.75,-1.1875
1582293998259558,-1.3125,-0.125,-1.375
1582293998281774,-1.1875,0.1875,-1
1582293998302442,-0.75,0.25,-0.5625
1582293998319398,0.125,-0.25,0.125
1582293998341345,1.25,-0.5625,0.4375
1582293998362282,2.4375,-0.5,0.5625
1582293998379242,2.9375,-0.5,1.0625
1582293998409184,2.875,-0.5625,1.0625
1582293998423121,2.3125,-0.625,0.875
1582293998444132,1.5,-0.5,0.5625
1582293998462016,1,-0.375,-0.125
1582293998482961,0.5625,-0.125,-0.75
1582293998498924,-0.75,0.0625,-1.1875
1582293998521862,-1.75,-0.0625,-1.75
1582293998543312,-2.1875,0.0625,-1.75
1582293998564850,-2.25,0,-2.125
1582293998580704,-2.1875,0.1875,-1.75
1582293998603695,-2,0.5,-1.3125
1582293998624775,-1.9375,0.5,-0.9375
1582293998640595,-1.0625,-0.0625,-0.375
1582293998663478,0.3125,-0.8125,0.375
1582293998677449,1.375,-1.3125,0.625
1582293998700794,1.1875,-1.5625,0.625
1582293998723450,1.0625,-1.75,0.875
1582293998744313,1.6875,-1.5625,0.75
1582293998761218,2.125,-1.375,0.875
