timestamp,x,y,z
1582297428085858,0.0654297,0.77832,-0.617188
1582297428109800,-0.0195313,0.758789,-0.709961
1582297428125998,-0.0380859,0.789063,-0.678711
1582297428146724,0.0112305,0.789063,-0.583984
1582297428169635,0.0678711,0.812988,-0.483887
1582297428184594,0.0678711,0.757324,-0.430664
1582297428206619,0.102539,0.795898,-0.539063
1582297428252456,0.081543,0.797852,-0.556641
1582297428252456,0.112305,0.79248,-0.594238
1582297428267420,0.129395,0.757813,-0.552734
1582297428290487,0.108887,0.682617,-0.555664
1582297428305483,0.00732422,0.633301,-0.671387
1582297428335339,-0.0629883,0.455566,-0.618652
1582297428374087,0.0371094,0.272949,-0.550781
1582297428374087,0.165527,0.379395,-0.593262
1582297428387088,0.145508,0.621094,-0.286621
1582297428418027,0.015625,0.533691,-0.17627
1582297428424960,0.125488,1.71143,-0.745117
1582297428449886,0.838379,2.78271,-0.153809
1582297428469842,0.972656,1.55078,-0.937012
1582297428485794,1.08057,0.953613,-0.331055
1582297428508743,0.847168,0.665527,-0.190918
1582297428530672,0.865234,0.472656,-0.156738
1582297428545871,0.82373,0.331543,-0.156738
1582297428568580,0.853027,0.358887,-0.241211
1582297428590519,0.771484,0.574707,-0.275391
1582297428605528,0.772949,0.817871,-0.200195
1582297428628470,0.73291,0.949707,-0.138672
1582297428651348,0.63623,0.893066,-0.138672
1582297428665318,0.61084,0.719238,-0.0996094
1582297428694236,0.578613,0.668457,-0.078125
1582297428711193,0.57959,0.686523,-0.102539
1582297428725156,0.64502,0.72998,-0.106934
1582297428751203,0.686523,0.765137,-0.13623
1582297428764052,0.689453,0.757813,-0.165039
1582297428784998,0.739258,0.716797,-0.195313
1582297428807129,0.550781,0.762207,-0.362793
1582297428821314,0.958984,0.818359,0.505859
1582297428844830,1.11572,0.898926,0.119629
1582297428867204,0.574707,0.758789,-0.637207
1582297428880784,0.128418,0.609375,-0.803223
1582297428904866,0.357422,0.650879,-0.104004
1582297428926808,1.04443,0.827637,0.551758
1582297428941631,0.897461,0.790039,-0.208984
1582297428964659,0.665039,0.729004,-0.158691
1582297428987489,0.66748,0.723633,-0.142578
1582297429001612,0.645508,0.732422,-0.114258
1582297429024578,0.656738,0.736816,-0.114258
1582297429047492,0.666016,0.738281,-0.118164
1582297429061258,0.588867,0.757324,-0.259766
1582297429092241,1.17041,0.847168,0.290039
1582297429107299,0.245605,0.605957,-0.336914
1582297429121091,0.253418,0.691895,-0.191895
1582297429145027,0.720703,0.726074,-0.11084
1582297429167177,0.654785,0.735352,-0.130371
1582297429181930,0.652344,0.738281,-0.14209
1582297429204979,0.653809,0.73291,-0.13916
1582297429226988,0.662109,0.734863,-0.133789
1582297429241774,0.658691,0.741699,-0.121582
1582297429265152,0.660156,0.741699,-0.116699
1582297429286910,0.659668,0.73877,-0.121582
1582297429301751,0.657715,0.734375,-0.119629
1582297429324770,0.661621,0.736328,-0.118652
1582297429347033,0.660645,0.740723,-0.117676
1582297429362453,0.652832,0.742188,-0.133301
1582297429385440,0.653809,0.741699,-0.13623
1582297429407731,0.658203,0.737793,-0.124512
1582297429422694,0.657227,0.73877,-0.12207
1582297429446221,0.657227,0.743164,-0.126953
1582297429467234,0.655273,0.741699,-0.123535
1582297429483123,0.659668,0.742188,-0.121094
1582297429506128,0.654297,0.735352,-0.121094
1582297429534169,0.654297,0.749023,-0.120605
1582297429543157,0.661133,0.75,-0.124023
1582297429565948,0.662109,0.740723,-0.132813
1582297429587304,0.658203,0.73291,-0.12207
1582297429602865,0.647949,0.733887,-0.119629
1582297429625753,0.660645,0.741699,-0.116211
1582297429655669,0.680664,0.755859,-0.123047
1582297429670626,0.750977,0.840332,-0.154785
1582297429693562,0.770508,0.945801,-0.289551
1582297429715502,0.691406,0.961914,-0.322266
1582297429730463,0.798828,0.851074,-0.193359
1582297429753402,0.82373,0.803711,-0.160156
1582297429775703,0.402344,1.0332,-0.287598
1582297429804264,0.517578,1.1416,-0.21875
1582297429813908,0.410645,1.27881,-0.450195
1582297429836256,0.311035,1.12598,-0.678711
1582297429857122,0.266602,0.898438,-0.694824
1582297429873079,0.218262,0.914551,-0.702637
1582297429896147,0.222168,0.963379,-0.72168
1582297429917964,0.232422,0.945801,-0.650391
1582297429932973,0.210449,0.880371,-0.624023
1582297429955862,0.104004,0.888184,-0.624023
1582297429976853,-0.0102539,0.936035,-0.567383
1582297429993755,-0.0507813,0.951172,-0.442871
1582297430015705,-0.034668,1.05225,-0.467285
1582297430036796,-0.074707,1.17871,-0.428711
1582297430053597,-0.183594,1.12061,-0.423828
1582297430083515,-0.243164,1.0166,-0.469727
1582297430097487,-0.262207,0.859863,-0.354492
1582297430113504,-0.29541,0.654297,-0.185059
1582297430135379,-0.350586,0.737305,-0.155273
1582297430157317,-0.330078,0.813477,-0.132813
1582297430173354,-0.344727,0.745117,-0.128906
1582297430196224,-0.387207,0.56543,-0.0893555
1582297430217189,-0.388672,0.498047,-0.0112305
1582297430233506,-0.403809,0.528809,-0.00585938
1582297430256184,-0.40918,0.589844,0.0283203
1582297430276999,-0.450195,0.628906,0.0341797
1582297430294952,-0.510254,0.604492,0.0283203
1582297430316029,-0.584961,0.558105,0.050293
1582297430336838,-0.693359,0.539063,0.0224609
1582297430353614,-0.530762,0.544434,0.119629
1582297430375747,-1.17529,0.598145,-0.0805664
1582297430396681,-0.608398,0.610352,0.248535
1582297430413634,-0.23584,0.639648,0.313477
1582297430435830,-0.217773,0.640625,0.319824
1582297430456660,-0.817871,0.650391,-0.0566406
1582297430473769,-0.785156,0.624023,0.0117188
1582297430495413,-0.814941,0.655762,0.0161133
1582297430517412,-0.798828,0.681152,0.0244141
1582297430533371,-0.799316,0.683594,0.0297852
1582297430556254,-0.785645,0.669922,0.0219727
1582297430578197,-0.781738,0.664551,0.0283203
1582297430593332,-0.775879,0.665039,0.0126953
1582297430616091,-0.773438,0.661621,0.00634766
1582297430638233,-0.770508,0.665039,0.0146484
1582297430652992,-0.753418,0.662598,0.0175781
1582297430676153,-0.748535,0.650879,0.0166016
1582297430698087,-0.742188,0.654297,0.00146484
1582297430713032,-0.744141,0.651855,-0.000488281
1582297430735865,-0.755371,0.640137,-0.0185547
1582297430758716,-0.744141,0.638184,-0.0102539
1582297430772955,-0.734863,0.649414,0.00439453
1582297430796017,-0.731934,0.654297,0.00390625
1582297430801664,-0.734375,0.638184,-0.0161133
1582297430823735,-0.725098,0.635254,-0.0117188
1582297430840514,-0.700195,0.647949,0.0366211
1582297430861591,-1.04443,0.635254,0.0415039
1582297430883434,-0.855957,0.587402,0.0893555
1582297430900337,-1.06689,0.688477,-0.375977
1582297430921550,-0.475098,0.618652,0.285156
1582297430946764,-0.770508,0.72168,-0.231934
1582297430959175,-1.03906,0.568848,-0.0639648
1582297430981354,-0.22998,0.78125,0.185547
1582297431004463,-1.31348,0.650879,-0.417969
1582297431019076,-0.259277,0.663574,0.340332
1582297431041538,-0.970215,0.697754,-0.370117
1582297431063898,-0.801758,0.585449,0.0947266
1582297431078907,-0.38623,0.750488,0.0112305
1582297431101075,-1.25049,0.604492,-0.325684
1582297431124231,-0.142578,0.757813,0.296387
1582297431138921,-0.658691,0.659668,0.0615234
1582297431161630,-0.666016,0.668945,-0.0532227
1582297431183776,-0.723145,0.684082,-0.0644531
1582297431200527,-0.724121,0.686523,-0.0639648
1582297431224567,-0.716309,0.701172,-0.0561523
1582297431243485,-0.712402,0.697754,-0.0625
1582297431260371,-0.709473,0.688477,-0.0571289
1582297431281450,-0.705078,0.702637,-0.0605469
1582297431304514,-0.710938,0.707031,-0.0605469
1582297431320215,-0.711426,0.694336,-0.065918
1582297431341339,-0.704102,0.697754,-0.0610352
1582297431364145,-0.69873,0.705566,-0.0644531
1582297431380055,-0.70166,0.707031,-0.0693359
1582297431401225,-0.702148,0.705566,-0.078125
1582297431423993,-0.698242,0.70752,-0.0776367
1582297431440267,-0.696777,0.703613,-0.0917969
1582297431460977,-0.697754,0.697754,-0.103516
1582297431483827,-0.69043,0.711914,-0.10498
1582297431499792,-0.681152,0.702148,-0.12793
1582297431521730,-0.664551,0.67334,-0.183105
1582297431543626,-0.677734,0.639648,-0.238281
1582297431561560,-0.711914,0.572754,-0.312012
1582297431581702,-0.719238,0.498047,-0.360352
1582297431603518,-0.685059,0.473145,-0.375
1582297431621645,-0.626953,0.562988,-0.399902
1582297431641413,-0.584961,0.644043,-0.375977
1582297431664345,-0.53418,0.651367,-0.34375
1582297431681242,-0.483887,0.640137,-0.340332
1582297431701635,-0.447754,0.744141,-0.284668
1582297431724279,-0.400391,0.751953,-0.242188
1582297431742401,-0.339844,0.753418,-0.261719
1582297431761276,-0.248047,0.818359,-0.263184
1582297431784122,-0.241699,0.950684,-0.345703
1582297431802071,-0.279297,0.932617,-0.319824
1582297431821867,-0.257813,0.672852,-0.289063
1582297431843990,-0.0703125,0.721191,-0.405762
1582297431861760,0.0400391,1.06348,-0.487793
1582297431881753,0.081543,1.06055,-0.470215
1582297431903863,0.0102539,0.919434,-0.502441
1582297431922110,0.0776367,0.882813,-0.559082
1582297431941556,0.266602,0.780762,-0.537598
1582297431963619,0.235352,0.776855,-0.615723
1582297431981591,0.166016,0.897461,-0.731445
1582297432002382,0.210449,0.91748,-0.78418
1582297432023492,0.284668,0.837891,-0.772461
1582297432041278,0.276367,0.72998,-0.80127
1582297432061754,0.279297,0.645508,-0.84668
1582297432084323,0.266602,0.82959,-0.920898
1582297432101124,0.246094,0.875,-0.98584
1582297432121266,0.134766,0.702637,-1.14014
1582297432145009,0.372559,0.58252,-0.813477
1582297432161961,0.289551,0.787109,-0.900879
1582297432182906,0.28125,0.707031,-0.97168
1582297432204108,0.249023,0.609863,-0.855957
1582297432221803,0.205078,0.507324,-0.893066
1582297432242967,0.299805,0.549316,-0.838379
1582297432264116,0.24707,0.65918,-0.874512
1582297432281819,0.256836,0.655273,-0.797363
1582297432302581,0.26123,0.567871,-0.732422
1582297432331677,0.266602,0.458984,-0.702148
1582297432342047,0.308105,0.459961,-0.654297
1582297432362425,0.362305,0.519043,-0.67627
1582297432384553,0.382813,0.646973,-0.614258
1582297432400379,0.32959,0.728027,-0.691895
1582297432422333,0.26416,0.628906,-0.940918
1582297432444372,0.310059,0.589844,-0.907715
1582297432461155,0.291992,0.686523,-0.882324
1582297432485091,0.294922,0.661621,-0.856445
1582297432505045,0.287598,0.594238,-0.811035
1582297432520996,0.266113,0.554199,-0.79834
1582297432543404,0.260254,0.57666,-0.768066
1582297432557909,0.238281,0.624023,-0.793457
1582297432581301,0.223633,0.642578,-0.790527
1582297432609803,0.224121,0.625977,-0.810547
1582297432624770,0.235352,0.635254,-0.801758
1582297432640678,0.245605,0.62207,-0.782715
1582297432663615,0.257813,0.607422,-0.785156
1582297432684793,0.257813,0.641113,-0.786133
1582297432700519,0.265625,0.639648,-0.776367
1582297432723731,0.266113,0.660645,-0.787109
1582297432737417,0.26123,0.649414,-0.770996
1582297432760447,0.259277,0.63916,-0.767578
1582297432783335,0.251953,0.641602,-0.763184
1582297432804379,0.258301,0.643066,-0.76709
1582297432821192,0.253906,0.634766,-0.77832
1582297432843135,0.253418,0.618652,-0.791504
1582297432864217,0.276367,0.617188,-0.799805
1582297432880168,0.271484,0.608887,-0.79248
1582297432903007,0.259766,0.625,-0.785645
1582297432917933,0.253418,0.632813,-0.777344
1582297432940916,0.266113,0.640625,-0.760254
1582297432963813,0.266113,0.641113,-0.759277
1582297432985177,0.260742,0.645996,-0.76709
1582297433000716,0.255371,0.655273,-0.77002
1582297433025651,0.257813,0.648926,-0.773438
1582297433040657,0.257813,0.647949,-0.783203
1582297433060552,0.378418,0.657715,-0.885254
1582297433081537,0.606934,0.638672,-0.307129
1582297433097600,0.046875,0.599121,-1.30518
1582297433120455,-0.347656,0.471191,-1.26953
1582297433144614,0.0239258,0.557129,-0.599121
1582297433164274,0.640625,0.727539,-0.114258
1582297433180300,0.856445,0.796387,-0.334473
1582297433201445,0.339355,0.67334,-1.11035
1582297433218129,0.227539,0.570313,-0.625488
1582297433240516,0.312012,0.611816,-0.771484
1582297433261282,0.256836,0.62207,-0.779785
1582297433278131,0.263184,0.634766,-0.783203
1582297433298956,0.262695,0.63916,-0.770996
1582297433322057,0.25,0.643066,-0.762207
1582297433337235,-0.188965,0.605469,-0.874512
1582297433359800,0.645996,0.67627,-0.252441
1582297433381845,-0.278809,0.522461,-1.00732
1582297433397166,0.283691,0.606445,-0.694336
1582297433419802,0.230957,0.637695,-0.774414
1582297433441588,0.258301,0.646484,-0.770996
1582297433457553,0.262207,0.63623,-0.777344
1582297433479632,0.266602,0.645996,-0.769531
1582297433502439,0.263672,0.645508,-0.773926
1582297433517644,0.26123,0.649414,-0.764648
1582297433539475,0.264648,0.646973,-0.754395
1582297433562410,0.260742,0.65332,-0.749512
1582297433577174,0.249023,0.658691,-0.758301
1582297433599373,0.250977,0.648926,-0.762207
1582297433622269,0.251953,0.643555,-0.771973
1582297433637230,0.263184,0.632813,-0.759277
1582297433658955,0.26123,0.625977,-0.776855
1582297433682037,0.261719,0.631836,-0.779785
1582297433698295,0.256348,0.624512,-0.775391
1582297433719992,0.258789,0.63916,-0.773926
1582297433741789,0.251953,0.641602,-0.771484
1582297433758684,0.253906,0.657227,-0.766602
1582297433779768,0.250488,0.660645,-0.759766
1582297433795590,0.256836,0.658203,-0.76123
1582297433818540,0.257813,0.657227,-0.757813
1582297433839668,0.253906,0.661621,-0.753418
1582297433855492,0.262695,0.653809,-0.75
1582297433878368,0.260742,0.649902,-0.751953
1582297433899366,0.257324,0.642578,-0.763672
1582297433923516,0.251953,0.649414,-0.770508
1582297433946189,0.255371,0.662598,-0.762207
1582297433967184,0.255859,0.65625,-0.758789
1582297433983083,0.259277,0.648926,-0.750488
1582297434006086,0.258789,0.644531,-0.753906
1582297434027029,0.255859,0.648438,-0.763184
1582297434043389,0.253906,0.658691,-0.766602
1582297434066283,0.253906,0.650879,-0.77002
1582297434086808,0.256348,0.648926,-0.761719
1582297434103772,0.250488,0.645508,-0.762695
1582297434125700,0.256348,0.649902,-0.758789
1582297434146833,0.248535,0.652344,-0.768066
1582297434163604,0.251465,0.652832,-0.760742
1582297434185897,0.25293,0.646484,-0.765137
1582297434207490,0.25293,0.653809,-0.762695
1582297434223765,0.25293,0.648438,-0.761719
1582297434245581,0.258789,0.646484,-0.762207
1582297434266328,0.258301,0.654297,-0.760742
1582297434283284,0.258301,0.646973,-0.766113
1582297434306218,0.250977,0.65625,-0.765625
1582297434327209,0.251465,0.645996,-0.761719
1582297434343237,0.249023,0.647949,-0.760742
1582297434366058,0.25,0.652344,-0.753418
1582297434388097,0.256836,0.65332,-0.759766
1582297434403014,0.258789,0.652344,-0.758789
1582297434425901,0.260254,0.657227,-0.762207
1582297434448023,0.25293,0.656738,-0.760254
1582297434469924,0.25293,0.654297,-0.77002
1582297434485917,0.257813,0.654785,-0.759766
1582297434508678,0.253906,0.663086,-0.761719
1582297434523635,0.255371,0.655762,-0.751465
1582297434553557,0.254395,0.655273,-0.754883
1582297434568523,0.256836,0.645996,-0.759766
1582297434582484,0.25293,0.649902,-0.757813
1582297434613402,0.248047,0.657227,-0.758301
1582297434628517,0.26123,0.65625,-0.760742
1582297434642425,0.254883,0.665527,-0.763184
1582297434666256,0.25293,0.661133,-0.76123
1582297434688202,0.248047,0.655273,-0.753418
1582297434703156,0.25,0.650391,-0.751953
1582297434726100,0.254883,0.657715,-0.754395
1582297434748037,0.255859,0.660645,-0.753906
1582297434763024,0.251953,0.664063,-0.757324
1582297434785990,0.255371,0.655762,-0.75293
1582297434808214,0.253418,0.660645,-0.756348
1582297434822903,0.250488,0.654785,-0.754395
1582297434845780,0.249512,0.65918,-0.753418
1582297434868717,0.248535,0.661621,-0.754883
1582297434890084,0.251465,0.657227,-0.757324
1582297434905619,0.252441,0.658203,-0.754883
1582297434928560,0.251465,0.660645,-0.75293
1582297434949712,0.251465,0.666016,-0.753418
1582297434965733,0.250488,0.662109,-0.75293
1582297434988455,0.252441,0.657227,-0.754883
1582297435009512,0.248047,0.662109,-0.759277
1582297435025304,0.251953,0.653809,-0.755859
1582297435048243,0.249512,0.664063,-0.755371
1582297435069319,0.25,0.659668,-0.759766
1582297435086137,0.25,0.65625,-0.749023
1582297435109089,0.265625,0.65625,-0.729492
1582297435130016,0.527832,0.646973,-0.615234
1582297435146022,0.719727,0.764648,-0.76416
1582297435167912,0.838867,0.683594,-0.390137
1582297435189974,-0.385742,0.592773,-1.104
1582297435205815,0.849121,0.706055,-0.376953
1582297435228751,-0.202148,0.663574,-1.1543
1582297435249905,0.426758,0.600098,-0.445801
1582297435265651,0.399414,0.760742,-0.885742
1582297435288648,-0.17041,0.541504,-0.81543
1582297435309593,0.84375,0.760254,-0.516113
1582297435325756,-0.366211,0.600586,-1.12842
1582297435348545,0.759277,0.679688,-0.355957
1582297435370556,-0.034668,0.699219,-1.104
1582297435386336,0.240234,0.578613,-0.526855
1582297435408272,0.100098,0.720703,-0.970703
1582297435431208,0.288574,0.65625,-0.765625
1582297435446169,0.253906,0.666504,-0.748535
1582297435468111,0.255371,0.650391,-0.760254
1582297435491097,0.251465,0.665527,-0.760254
1582297435505014,0.245605,0.659668,-0.755371
1582297435528066,0.249023,0.660156,-0.75
1582297435550941,0.252441,0.660645,-0.753906
1582297435565115,0.251953,0.660156,-0.75
1582297435588786,0.250977,0.664063,-0.75293
1582297435610728,0.251953,0.664551,-0.749023
1582297435624704,0.250488,0.664551,-0.758789
1582297435648625,0.251465,0.660645,-0.754395
1582297435670628,0.249023,0.657227,-0.750977
1582297435685542,0.252441,0.659668,-0.749512
1582297435708477,0.254395,0.663086,-0.748047
1582297435730572,0.251953,0.672363,-0.748047
1582297435745368,0.250488,0.666016,-0.754883
1582297435768367,0.251953,0.665527,-0.747559
1582297435791263,0.254395,0.666992,-0.753906
1582297435805272,0.255371,0.666504,-0.748047
1582297435813075,0.246582,0.662109,-0.750488
1582297435834508,0.249023,0.666016,-0.750488
1582297435856211,0.248047,0.665527,-0.759766
1582297435873070,0.25293,0.665039,-0.745117
1582297435894379,0.253906,0.665039,-0.748047
1582297435916195,0.255371,0.666504,-0.75
1582297435934420,0.248535,0.667969,-0.74707
1582297435954037,0.253418,0.662598,-0.74707
1582297435975816,0.248047,0.65918,-0.752441
1582297435992755,0.24707,0.662109,-0.74707
1582297436013837,0.250488,0.666504,-0.749512
1582297436036590,0.249512,0.67041,-0.755859
1582297436052679,0.251953,0.666504,-0.751465
1582297436073855,0.250977,0.658691,-0.749023
1582297436096577,0.253418,0.663086,-0.748047
1582297436114386,0.25,0.666504,-0.746582
1582297436133514,0.250977,0.671387,-0.743164
1582297436156464,0.242676,0.666992,-0.751953
1582297436172227,0.249023,0.662109,-0.754395
1582297436194226,0.251953,0.661621,-0.748535
1582297436224099,0.248535,0.668945,-0.750977
1582297436233062,0.25,0.65918,-0.759277
1582297436254204,0.247559,0.664063,-0.749512
1582297436276008,0.25,0.668457,-0.746582
1582297436293899,0.246582,0.670898,-0.746582
1582297436314049,0.251465,0.660645,-0.739746
1582297436336794,0.250977,0.656738,-0.746582
1582297436354558,0.251465,0.660156,-0.751953
1582297436373735,0.248535,0.665039,-0.758789
1582297436396685,0.251953,0.669922,-0.752441
1582297436414577,0.25,0.674316,-0.751953
1582297436433917,0.248535,0.663086,-0.745117
1582297436456667,0.24707,0.664551,-0.742188
1582297436474542,0.250488,0.665039,-0.743164
1582297436493806,0.252441,0.666016,-0.747559
1582297436516499,0.247559,0.672852,-0.749023
1582297436534258,0.249512,0.668945,-0.745605
1582297436554556,0.251465,0.664551,-0.749512
1582297436576280,0.251465,0.661133,-0.749512
1582297436594099,0.253906,0.66748,-0.740234
1582297436614225,0.253906,0.674316,-0.741211
1582297436636565,0.24707,0.671387,-0.739258
1582297436653940,0.250977,0.667969,-0.744141
1582297436674108,0.249023,0.667969,-0.746582
1582297436696300,0.251465,0.666504,-0.74707
1582297436713777,0.252441,0.669434,-0.750977
1582297436733857,0.248535,0.674316,-0.745117
1582297436756773,0.249512,0.664551,-0.744629
1582297436774882,0.247559,0.668457,-0.740723
1582297436793697,0.246582,0.668457,-0.74707
1582297436816507,0.249023,0.673828,-0.749023
1582297436834459,0.248535,0.669922,-0.749512
1582297436853599,0.248047,0.66748,-0.750488
1582297436876553,0.249023,0.666504,-0.75293
1582297436894473,0.254395,0.671387,-0.744629
1582297436915246,0.244629,0.669922,-0.745605
1582297436936348,0.246094,0.668945,-0.741211
1582297436954141,0.243652,0.661621,-0.74707
1582297436975181,0.254395,0.664551,-0.747559
1582297436996069,0.252441,0.673828,-0.744141
1582297437014177,0.25293,0.67334,-0.74707
1582297437035180,0.252441,0.672852,-0.748535
1582297437056068,0.25,0.668945,-0.742676
1582297437073811,0.24707,0.666504,-0.742676
1582297437095124,0.250977,0.666016,-0.747559
1582297437115703,0.249512,0.667969,-0.748535
1582297437134444,0.247559,0.669922,-0.744141
1582297437155602,0.245605,0.667969,-0.750488
1582297437176870,0.25,0.663574,-0.740234
1582297437194088,0.248047,0.670898,-0.753906
1582297437216483,0.245117,0.67041,-0.74707
1582297437236740,0.252441,0.670898,-0.750488
1582297437254341,0.250977,0.67041,-0.740723
1582297437276541,0.25293,0.675293,-0.748535
1582297437296414,0.242676,0.675293,-0.745605
1582297437314173,0.248535,0.665039,-0.743164
1582297437336506,0.25,0.661133,-0.745605
1582297437356547,0.253418,0.666992,-0.751465
1582297437374548,0.25,0.671875,-0.748535
1582297437396948,0.249023,0.670898,-0.741211
1582297437416175,0.243652,0.67627,-0.748047
1582297437433038,0.248047,0.671875,-0.743164
1582297437456161,0.253418,0.663574,-0.740723
1582297437477258,0.251465,0.674316,-0.753418
1582297437493695,0.245117,0.677734,-0.751465
1582297437515646,0.25,0.667969,-0.745117
1582297437537082,0.247559,0.66748,-0.747559
1582297437553598,0.249512,0.664551,-0.741211
1582297437575470,0.25,0.666504,-0.744629
1582297437590430,0.252441,0.674805,-0.745117
1582297437613438,0.249512,0.677734,-0.741699
1582297437635485,0.251953,0.666992,-0.742188
1582297437650490,0.25,0.67334,-0.745117
1582297437673417,0.255371,0.678223,-0.738281
1582297437696154,0.250977,0.677734,-0.748047
1582297437710112,0.246582,0.665527,-0.754883
1582297437733314,0.248535,0.662598,-0.767578
1582297437756055,0.277832,0.677734,-0.763672
1582297437777379,0.276855,0.696289,-0.727051
1582297437792890,0.265137,0.690918,-0.716797
1582297437815831,0.243652,0.673828,-0.730469
1582297437836967,0.231445,0.65332,-0.702637
1582297437853726,0.232422,0.640137,-0.708496
1582297437875845,0.226563,0.637207,-0.706055
1582297437896755,0.217773,0.650391,-0.699219
1582297437913770,0.221191,0.693848,-0.70166
1582297437935570,0.233887,0.740234,-0.694824
1582297437956657,0.254395,0.702637,-0.729492
1582297437972615,0.229492,0.664063,-0.751953
1582297437995412,0.218262,0.68457,-0.744141
1582297438017452,0.214844,0.712402,-0.734375
1582297438032311,0.225586,0.727539,-0.708496
1582297438056184,0.229004,0.76123,-0.703613
1582297438077325,0.20752,0.780273,-0.706055
1582297438092093,0.185547,0.734863,-0.726074
1582297438116220,0.178711,0.708496,-0.723633
1582297438137177,0.203613,0.745605,-0.691895
1582297438160905,0.227539,0.777832,-0.671875
1582297438175867,0.229492,0.799805,-0.647461
1582297438198003,0.229004,0.795898,-0.647949
1582297438212986,0.221191,0.77002,-0.63916
1582297438235710,0.226074,0.730957,-0.630371
1582297438258646,0.234375,0.714844,-0.606445
1582297438273616,0.234863,0.723633,-0.620117
1582297438295544,0.231934,0.737305,-0.641113
1582297438318546,0.224609,0.74707,-0.660645
1582297438332449,0.228027,0.745605,-0.656738
1582297438355568,0.229492,0.755859,-0.659668
1582297438378387,0.223145,0.780273,-0.654785
1582297438392519,0.222168,0.795898,-0.667969
1582297438416222,0.244141,0.793457,-0.655762
1582297438438382,0.250977,0.797852,-0.640625
1582297438452332,0.241699,0.79541,-0.63623
1582297438476069,0.221191,0.803223,-0.62793
1582297438498173,0.206543,0.797852,-0.625977
1582297438512968,0.20459,0.790039,-0.637207
1582297438535949,0.211914,0.771973,-0.651855
1582297438558332,0.223145,0.750977,-0.678711
1582297438572864,0.225586,0.747559,-0.696289
1582297438595972,0.236816,0.751465,-0.70459
1582297438618678,0.242188,0.756836,-0.688477
1582297438632706,0.248047,0.763184,-0.68457
1582297438655838,0.227539,0.760742,-0.691895
1582297438678527,0.214844,0.749023,-0.695313
1582297438699652,0.211426,0.738281,-0.696289
1582297438715935,0.232422,0.738281,-0.685059
1582297438738541,0.254883,0.730469,-0.663574
1582297438759337,0.246582,0.708984,-0.675293
1582297438775312,0.260742,0.714355,-0.672852
1582297438799264,0.260742,0.710938,-0.671387
1582297438819677,0.251465,0.712891,-0.677734
1582297438836144,0.230957,0.698242,-0.694824
1582297438858038,0.241211,0.73291,-0.710449
1582297438879406,0.259766,0.737305,-0.706055
1582297438895981,0.268555,0.748047,-0.705078
1582297438918016,0.255371,0.743652,-0.699707
1582297438940145,0.259277,0.733398,-0.692871
1582297438954934,0.26416,0.70752,-0.723633
1582297438978723,0.279785,0.685547,-0.724609
1582297438999855,0.282715,0.669922,-0.706543
1582297439015620,0.27832,0.652832,-0.702148
1582297439038606,0.272461,0.661133,-0.688965
1582297439059651,0.27002,0.66748,-0.724609
1582297439075456,0.265625,0.644531,-0.768066
1582297439098404,0.272949,0.660156,-0.77832
1582297439119510,0.274414,0.660156,-0.765625
1582297439135561,0.277344,0.654785,-0.743652
1582297439158241,0.282227,0.612305,-0.750977
1582297439181182,0.290039,0.619629,-0.740723
1582297439196141,0.304688,0.638672,-0.742676
1582297439218076,0.31543,0.606934,-0.769043
1582297439241027,0.325195,0.602539,-0.757813
1582297439254977,0.356445,0.623047,-0.734863
1582297439277964,0.322266,0.498535,-0.706543
1582297439300917,0.350098,0.688477,-0.759277
1582297439314815,0.308105,0.554199,-0.768555
1582297439337951,0.345703,0.716797,-0.714844
1582297439360700,0.29541,0.620605,-0.736328
1582297439381834,0.318848,0.661133,-0.71582
1582297439398604,0.285645,0.658203,-0.724121
1582297439420598,0.290527,0.681641,-0.715332
1582297439441522,0.249023,0.657715,-0.740723
1582297439458431,0.290039,0.668457,-0.711914
1582297439480546,0.301758,0.67334,-0.681641
1582297439502314,0.324219,0.693848,-0.65918
1582297439518280,0.322266,0.709473,-0.64502
1582297439541213,0.324219,0.724121,-0.661133
1582297439562288,0.303711,0.736816,-0.683594
1582297439578287,0.286133,0.74707,-0.6875
1582297439601119,0.270996,0.73877,-0.70459
1582297439622165,0.264648,0.731934,-0.710938
1582297439638011,0.271973,0.712891,-0.706543
1582297439660890,0.287109,0.685059,-0.682129
1582297439682231,0.300781,0.69873,-0.666016
1582297439698791,0.31543,0.69873,-0.662109
1582297439721002,0.317383,0.713867,-0.651855
1582297439741678,0.30957,0.757324,-0.662598
1582297439758630,0.291016,0.774414,-0.669434
1582297439780629,0.269043,0.760742,-0.687988
1582297439801779,0.253906,0.747559,-0.696777
1582297439818478,0.251465,0.717285,-0.708008
1582297439840425,0.260254,0.685059,-0.723145
1582297439861355,0.272461,0.673828,-0.712891
1582297439878550,0.283203,0.671387,-0.701172
1582297439900454,0.282227,0.700195,-0.682129
1582297439922389,0.29541,0.728027,-0.670898
1582297439938153,0.29248,0.713867,-0.676758
1582297439961089,0.286133,0.711914,-0.680664
1582297439982279,0.261719,0.720215,-0.67627
1582297439998055,0.262695,0.734863,-0.675781
1582297440021209,0.26709,0.760254,-0.666016
1582297440041908,0.28418,0.767578,-0.657715
1582297440058103,0.29248,0.751953,-0.65332
1582297440081070,0.292969,0.724609,-0.664551
1582297440103706,0.279785,0.706055,-0.668457
1582297440118676,0.271973,0.713379,-0.673828
1582297440140608,0.270508,0.719727,-0.687988
1582297440163543,0.269043,0.718262,-0.69043
1582297440178588,0.26416,0.709961,-0.706055
1582297440200578,0.272949,0.705566,-0.712402
1582297440223383,0.279297,0.699219,-0.713867
1582297440237773,0.269531,0.703613,-0.703613
1582297440260477,0.259277,0.703125,-0.696289
1582297440283229,0.26416,0.709473,-0.702637
1582297440297606,0.277832,0.710938,-0.700684
1582297440321125,0.281738,0.697754,-0.709473
1582297440343268,0.280273,0.697266,-0.696289
1582297440358025,0.282715,0.721191,-0.686035
1582297440380995,0.283203,0.71875,-0.690918
1582297440403039,0.283203,0.708984,-0.694336
1582297440418104,0.280762,0.689453,-0.697266
1582297440440804,0.280273,0.684082,-0.700195
1582297440462758,0.285645,0.694336,-0.694336
1582297440477713,0.28125,0.692383,-0.696289
1582297440500649,0.279297,0.688477,-0.705078
1582297440523586,0.282715,0.681641,-0.706543
1582297440537758,0.289551,0.688477,-0.702637
1582297440560533,0.28418,0.700684,-0.70166
1582297440583471,0.283203,0.699707,-0.709473
1582297440604591,0.282715,0.706543,-0.717285
1582297440620739,0.285645,0.698242,-0.712891
1582297440643461,0.286621,0.705078,-0.710449
1582297440664207,0.279785,0.706055,-0.709473
1582297440681163,0.279297,0.702148,-0.69873
1582297440704108,0.274902,0.692383,-0.708984
1582297440724171,0.284668,0.690918,-0.70459
1582297440741015,0.286133,0.691895,-0.710938
1582297440762970,0.285645,0.695801,-0.708008
1582297440784931,0.286621,0.681641,-0.708984
1582297440801124,0.284668,0.686035,-0.712402
1582297440822827,0.291992,0.694336,-0.709473
1582297440828983,0.288086,0.693359,-0.703613
1582297440851713,0.285156,0.687012,-0.710938
1582297440866737,0.286621,0.691406,-0.707031
1582297440888809,0.280762,0.688965,-0.70752
1582297440911740,0.283203,0.692383,-0.703125
1582297440926574,0.283203,0.696289,-0.709961
1582297440948512,0.280273,0.697266,-0.712891
1582297440971816,0.285156,0.692383,-0.710449
1582297440986554,0.289063,0.697754,-0.70459
1582297441008284,0.286133,0.690918,-0.708496
1582297441034222,0.28125,0.693848,-0.704102
1582297441046586,0.276855,0.700195,-0.70459
1582297441069262,0.277832,0.693848,-0.704102
1582297441094193,0.280762,0.688477,-0.70752
1582297441106080,0.286133,0.695313,-0.707031
1582297441129166,0.299316,0.707031,-0.711426
1582297441151115,0.292969,0.694336,-0.70166
1582297441166011,0.283691,0.684082,-0.706055
1582297441189018,0.28418,0.694824,-0.703613
1582297441206755,0.290527,0.694824,-0.70459
1582297441226703,0.284668,0.693848,-0.708008
1582297441248877,0.283203,0.688477,-0.70752
1582297441266603,0.279785,0.696289,-0.708496
1582297441286755,0.282715,0.693359,-0.709473
1582297441308618,0.288574,0.694824,-0.712402
1582297441327004,0.286133,0.691406,-0.70166
1582297441346508,0.291504,0.694336,-0.699219
1582297441369379,0.282715,0.696289,-0.702637
1582297441386938,0.282715,0.699707,-0.70459
1582297441406230,0.283691,0.697266,-0.711426
1582297441429161,0.286133,0.689941,-0.714355
1582297441446571,0.285645,0.693359,-0.708496
1582297441466118,0.283691,0.688965,-0.708496
1582297441491992,0.283203,0.695313,-0.705078
1582297441506957,0.282715,0.693359,-0.705078
1582297441526344,0.28418,0.696289,-0.702637
1582297441549042,0.287109,0.700684,-0.710938
1582297441567072,0.289551,0.699707,-0.702637
1582297441586786,0.289063,0.693359,-0.704102
1582297441608921,0.290527,0.691895,-0.70752
1582297441626638,0.275879,0.689453,-0.706543
1582297441647639,0.284668,0.691406,-0.70459
1582297441668713,0.290527,0.691895,-0.706055
1582297441686641,0.286133,0.687988,-0.710938
1582297441707548,0.282227,0.686523,-0.708984
1582297441736554,0.287598,0.686523,-0.710449
1582297441746381,0.279785,0.693359,-0.712891
1582297441769251,0.289063,0.698242,-0.708008
1582297441789276,0.282715,0.698242,-0.708008
1582297441806652,0.28418,0.689453,-0.704102
1582297441827274,0.286133,0.681641,-0.704102
1582297441849265,0.285645,0.691895,-0.712891
1582297441866182,0.286621,0.688477,-0.710449
1582297441887997,0.288574,0.691895,-0.712891
1582297441909076,0.286621,0.687988,-0.712402
1582297441926843,0.28418,0.689941,-0.712402
1582297441947840,0.288574,0.691406,-0.706543
1582297441968944,0.285156,0.684082,-0.701172
1582297441986669,0.285645,0.69043,-0.711426
1582297442016590,0.28418,0.691895,-0.70459
1582297442031933,0.283203,0.700195,-0.713379
1582297442046510,0.287109,0.689941,-0.713867
1582297442069446,0.283691,0.683105,-0.711426
1582297442089394,0.283691,0.689453,-0.706543
1582297442107012,0.285156,0.6875,-0.706055
1582297442129287,0.289063,0.696777,-0.715332
1582297442148455,0.287109,0.691895,-0.713867
1582297442166188,0.289551,0.688477,-0.711914
1582297442189137,0.282715,0.691406,-0.712891
1582297442209098,0.283203,0.687012,-0.715332
1582297442227030,0.286133,0.691895,-0.706543
1582297442249531,0.290527,0.695801,-0.711426
1582297442269106,0.291504,0.699707,-0.70752
1582297442286873,0.294434,0.700195,-0.702148
1582297442308805,0.285156,0.690918,-0.708008
1582297442328953,0.282227,0.688477,-0.716309
1582297442346905,0.283691,0.689941,-0.716309
1582297442368953,0.287598,0.681152,-0.715332
1582297442388785,0.291016,0.67627,-0.715332
1582297442406609,0.286621,0.675781,-0.716309
1582297442429553,0.290527,0.681641,-0.716797
1582297442449482,0.291016,0.688965,-0.712891
1582297442465586,0.286621,0.694824,-0.706543
1582297442488394,0.281738,0.702637,-0.705078
1582297442509489,0.289551,0.698242,-0.703125
1582297442526226,0.295898,0.685547,-0.697266
1582297442548170,0.292969,0.681152,-0.70752
1582297442571103,0.291504,0.6875,-0.707031
1582297442586066,0.285645,0.679688,-0.711914
1582297442608063,0.286133,0.682617,-0.717285
1582297442629994,0.289063,0.689941,-0.712891
1582297442645905,0.285645,0.691406,-0.713867
1582297442668047,0.288086,0.694336,-0.714844
1582297442689797,0.288086,0.692383,-0.713867
1582297442713090,0.284668,0.685059,-0.708984
1582297442727843,0.28418,0.685547,-0.704102
1582297442749825,0.285645,0.699219,-0.711914
1582297442765592,0.287598,0.694336,-0.717285
1582297442788596,0.29248,0.6875,-0.716309
1582297442809713,0.287598,0.680664,-0.708984
1582297442825691,0.280762,0.686035,-0.710449
1582297442848658,0.287598,0.687988,-0.705078
1582297442869524,0.287598,0.698242,-0.714355
1582297442885463,0.290039,0.699219,-0.714844
1582297442908381,0.290527,0.691895,-0.710449
1582297442931172,0.285645,0.688477,-0.704102
1582297442946103,0.287109,0.682129,-0.703613
1582297442968066,0.291016,0.692383,-0.705566
1582297442991045,0.288086,0.699219,-0.714844
1582297443005942,0.288086,0.687012,-0.711914
1582297443027929,0.288086,0.687988,-0.716309
1582297443050864,0.286621,0.685059,-0.707031
1582297443064788,0.290039,0.696777,-0.70752
1582297443088719,0.29248,0.694824,-0.711914
1582297443110726,0.288086,0.695801,-0.708984
1582297443124652,0.287109,0.688965,-0.708496
1582297443155540,0.283691,0.68457,-0.716797
1582297443170516,0.282715,0.696777,-0.713867
1582297443185485,0.291016,0.685547,-0.711426
1582297443208405,0.28418,0.696777,-0.712402
1582297443230384,0.283691,0.689941,-0.705078
1582297443245300,0.286621,0.692383,-0.712402
1582297443268255,0.284668,0.693359,-0.71582
1582297443291177,0.285645,0.688965,-0.710449
1582297443305361,0.290039,0.686035,-0.703613
1582297443328326,0.290527,0.691406,-0.708008
1582297443351019,0.285645,0.694336,-0.694824
1582297443364988,0.288086,0.694336,-0.706055
1582297443388032,0.283203,0.68457,-0.716797
1582297443410911,0.287109,0.6875,-0.712891
1582297443433152,0.288574,0.684082,-0.709961
1582297443447953,0.293945,0.694336,-0.713379
1582297443470703,0.288086,0.690918,-0.708984
1582297443491711,0.288086,0.691406,-0.708008
1582297443508603,0.282715,0.69043,-0.70752
1582297443530543,0.288574,0.691895,-0.70166
1582297443552487,0.285645,0.70166,-0.711426
1582297443568499,0.281738,0.697266,-0.711914
1582297443590609,0.283691,0.692383,-0.709473
1582297443611757,0.286621,0.685547,-0.708984
1582297443628341,0.284668,0.688965,-0.703125
1582297443651215,0.287598,0.69873,-0.709473
1582297443679343,0.283691,0.698242,-0.706055
1582297443696102,0.283203,0.692871,-0.70166
1582297443711060,0.289551,0.689941,-0.708008
1582297443732187,0.281738,0.694336,-0.710449
1582297443748201,0.284668,0.700684,-0.711914
1582297443771174,0.290039,0.688477,-0.705078
1582297443792297,0.287598,0.692383,-0.713867
1582297443807855,0.289063,0.688477,-0.712891
1582297443830739,0.282715,0.687988,-0.712402
1582297443852159,0.285156,0.700195,-0.709961
1582297443868633,0.284668,0.692871,-0.705566
1582297443890572,0.283691,0.688477,-0.697754
1582297443913514,0.285156,0.693359,-0.706055
1582297443928489,0.288086,0.692383,-0.705566
1582297443950768,0.289063,0.689453,-0.709473
1582297443973363,0.282715,0.68457,-0.708496
1582297443988512,0.283691,0.695801,-0.715332
1582297444010449,0.28418,0.694824,-0.712402
1582297444041176,0.284668,0.697266,-0.716309
1582297444047329,0.288574,0.695313,-0.714844
1582297444071145,0.287109,0.688477,-0.712402
1582297444093032,0.291504,0.693848,-0.70459
1582297444107999,0.289551,0.693848,-0.711426
1582297444137150,0.284668,0.694824,-0.708984
1582297444153039,0.282227,0.70166,-0.703613
1582297444175875,0.280762,0.689941,-0.705078
1582297444190828,0.282715,0.682617,-0.716309
1582297444213711,0.283691,0.679688,-0.712891
1582297444235804,0.288574,0.69043,-0.710938
1582297444250617,0.288574,0.699219,-0.712891
1582297444273612,0.288086,0.697266,-0.709961
1582297444287516,0.284668,0.697266,-0.70459
1582297444311635,0.28418,0.688477,-0.70166
1582297444333458,0.286133,0.697754,-0.70459
1582297444347413,0.285156,0.697754,-0.700684
1582297444370480,0.289551,0.688965,-0.712402
1582297444393275,0.290527,0.679688,-0.718262
1582297444414242,0.285156,0.6875,-0.714355
1582297444431127,0.286621,0.69873,-0.704102
1582297444453310,0.285645,0.694824,-0.708984
1582297444474845,0.287598,0.6875,-0.71582
1582297444490966,0.284668,0.69043,-0.710938
1582297444512974,0.288086,0.689453,-0.709961
1582297444542198,0.290527,0.697266,-0.708496
1582297444551009,0.284668,0.68457,-0.717285
1582297444573480,0.287598,0.683594,-0.710449
1582297444594757,0.285645,0.691895,-0.707031
1582297444610652,0.290527,0.687012,-0.708008
1582297444633584,0.29248,0.683594,-0.708496
1582297444654734,0.286621,0.691406,-0.702148
1582297444670757,0.284668,0.696777,-0.708008
1582297444693440,0.291992,0.692871,-0.70459
1582297444714591,0.288574,0.681641,-0.70752
1582297444730774,0.291504,0.685059,-0.713867
1582297444753568,0.287109,0.694824,-0.713379
1582297444774213,0.286133,0.687988,-0.714355
1582297444791169,0.286621,0.678223,-0.712891
1582297444813258,0.288574,0.682129,-0.711914
1582297444836088,0.296875,0.699707,-0.703613
1582297444851051,0.288574,0.698242,-0.712402
1582297444872953,0.284668,0.687012,-0.718262
1582297444895885,0.286621,0.680664,-0.712402
1582297444909847,0.287109,0.69043,-0.703125
1582297444932981,0.290039,0.691406,-0.70459
1582297444955726,0.289551,0.685059,-0.705078
1582297444969881,0.286621,0.680176,-0.714355
1582297444993629,0.291504,0.681152,-0.708496
1582297445015574,0.290527,0.686523,-0.709473
1582297445030532,0.287598,0.696777,-0.713867
1582297445053723,0.289551,0.690918,-0.719238
1582297445075462,0.288574,0.68457,-0.711426
1582297445090370,0.290527,0.679688,-0.706543
1582297445113372,0.287598,0.690918,-0.710449
1582297445135804,0.290039,0.697266,-0.708008
1582297445150451,0.285156,0.691406,-0.715332
1582297445173324,0.288086,0.681152,-0.710938
1582297445196081,0.291016,0.687988,-0.708984
1582297445210201,0.282227,0.686035,-0.709473
1582297445233046,0.287598,0.690918,-0.707031
1582297445255938,0.286621,0.682129,-0.719727
1582297445269891,0.286621,0.690918,-0.702637
1582297445292936,0.289063,0.693848,-0.708496
1582297445315805,0.28418,0.688965,-0.70752
1582297445345138,0.285645,0.688477,-0.718262
1582297445353661,0.284668,0.692383,-0.710938
1582297445375609,0.290527,0.696289,-0.70752
1582297445396940,0.289063,0.693848,-0.705566
1582297445413499,0.291016,0.6875,-0.706055
1582297445435529,0.290039,0.6875,-0.708008
1582297445457390,0.285645,0.696289,-0.713379
1582297445473338,0.284668,0.688477,-0.708984
1582297445495739,0.289063,0.697754,-0.705566
1582297445517438,0.290039,0.692383,-0.699707
1582297445533198,0.283691,0.689453,-0.710449
1582297445556125,0.289063,0.699219,-0.712891
1582297445577210,0.288574,0.691895,-0.707031
1582297445593032,0.280273,0.689941,-0.711426
1582297445616026,0.285156,0.692871,-0.703613
1582297445637102,0.289063,0.697754,-0.719727
1582297445652996,0.285645,0.688477,-0.715332
1582297445682996,0.282227,0.685547,-0.708496
1582297445696787,0.285645,0.692383,-0.706543
1582297445713699,0.287109,0.699707,-0.703613
1582297445735837,0.290039,0.700195,-0.70459
1582297445756710,0.280762,0.689941,-0.702148
1582297445773687,0.288086,0.690918,-0.702637
1582297445795485,0.286621,0.696289,-0.705078
1582297445818645,0.287598,0.692383,-0.713867
1582297445833432,0.282715,0.699219,-0.710449
1582297445855327,0.28418,0.700195,-0.703125
1582297445861496,0.285156,0.691406,-0.70459
1582297445884295,0.28418,0.692383,-0.706055
1582297445901441,0.278809,0.693848,-0.701172
1582297445929120,0.288086,0.705078,-0.699707
1582297445944084,0.282715,0.696777,-0.710938
1582297445959237,0.284668,0.691406,-0.702148
1582297445981039,0.28418,0.686035,-0.702637
1582297446004118,0.283691,0.695313,-0.707031
1582297446019091,0.276855,0.692871,-0.707031
1582297446041190,0.283203,0.702148,-0.705566
1582297446063976,0.284668,0.700195,-0.708984
1582297446078931,0.287109,0.694824,-0.709961
1582297446101723,0.288574,0.694824,-0.706543
1582297446123597,0.28418,0.70459,-0.702637
1582297446138751,0.283691,0.696777,-0.699219
1582297446161831,0.282715,0.702148,-0.69873
1582297446183766,0.283203,0.702637,-0.70459
1582297446206386,0.284668,0.695313,-0.705078
1582297446221540,0.286133,0.694336,-0.70166
1582297446243492,0.28125,0.697266,-0.703613
1582297446258725,0.284668,0.699707,-0.702637
1582297446281372,0.283691,0.697266,-0.697754
1582297446304115,0.282715,0.69873,-0.699219
1582297446319197,0.280273,0.698242,-0.706543
1582297446341084,0.283203,0.696777,-0.703125
1582297446363955,0.288086,0.697754,-0.702148
1582297446379972,0.284668,0.696777,-0.704102
1582297446401064,0.287109,0.698242,-0.700195
1582297446423986,0.275879,0.694824,-0.703613
1582297446439759,0.286133,0.694336,-0.70459
1582297446461703,0.282227,0.700684,-0.706055
1582297446483795,0.280273,0.705566,-0.700195
1582297446500171,0.282715,0.692871,-0.698242
1582297446521893,0.284668,0.693359,-0.702637
1582297446543855,0.285645,0.69873,-0.700195
1582297446560430,0.285645,0.702148,-0.691895
1582297446581595,0.280273,0.700684,-0.697754
1582297446603519,0.279297,0.691406,-0.706055
1582297446620325,0.283691,0.695801,-0.701172
1582297446641372,0.285156,0.700195,-0.704102
1582297446663633,0.286133,0.697754,-0.703125
1582297446681107,0.282715,0.69873,-0.706055
1582297446701555,0.278809,0.693848,-0.702637
1582297446724013,0.282227,0.700195,-0.695801
1582297446741952,0.282227,0.699219,-0.698242
1582297446763886,0.283691,0.700684,-0.699707
1582297446778852,0.285156,0.699219,-0.699219
1582297446802028,0.287109,0.702637,-0.705566
1582297446821744,0.28418,0.692383,-0.701172
1582297446839112,0.282227,0.696777,-0.705566
1582297446861719,0.277832,0.702148,-0.699219
1582297446881979,0.282715,0.70459,-0.692383
1582297446899524,0.282715,0.701172,-0.703613
1582297446921472,0.282227,0.684082,-0.695801
1582297446941594,0.248047,0.635742,-0.796875
1582297446959369,0.29541,0.699219,-0.705566
1582297446981801,0.256836,0.753418,-0.656738
1582297447001524,0.306641,0.744629,-0.685059
1582297447019202,0.277344,0.668945,-0.739258
1582297447041150,0.316406,0.715332,-0.655273
1582297447061551,0.290039,0.73291,-0.667969
1582297447079043,0.297363,0.729492,-0.691406
1582297447101995,0.298828,0.663574,-0.688965
1582297447121381,0.296875,0.697266,-0.677734
1582297447138888,0.272461,0.712402,-0.691406
1582297447161822,0.26416,0.702637,-0.708984
1582297447181798,0.267578,0.683105,-0.730957
1582297447198725,0.262695,0.684082,-0.712402
1582297447221696,0.273926,0.692383,-0.715332
1582297447241669,0.272461,0.694824,-0.722656
1582297447258572,0.291992,0.686035,-0.692871
1582297447281500,0.293945,0.708496,-0.688965
1582297447301615,0.27832,0.720703,-0.681641
1582297447319960,0.293945,0.729004,-0.686523
1582297447341342,0.291504,0.709473,-0.691895
1582297447362292,0.288086,0.712402,-0.692383
1582297447379245,0.276367,0.705566,-0.700684
1582297447401492,0.280273,0.699707,-0.702148
1582297447422132,0.283203,0.688477,-0.704102
1582297447439327,0.279785,0.692383,-0.699707
1582297447461471,0.27002,0.702637,-0.70166
1582297447482962,0.28125,0.706055,-0.702148
1582297447498051,0.285156,0.691406,-0.708984
1582297447521141,0.291016,0.708496,-0.702148
1582297447542298,0.284668,0.707031,-0.700684
1582297447565745,0.291992,0.711914,-0.688965
1582297447580709,0.283691,0.693359,-0.695801
1582297447601872,0.277832,0.700195,-0.699219
1582297447618607,0.273438,0.699219,-0.702148
1582297447640714,0.275391,0.708008,-0.703613
1582297447663479,0.27832,0.705566,-0.708008
1582297447678446,0.279785,0.694336,-0.70752
1582297447700523,0.28418,0.694336,-0.703613
1582297447723326,0.289551,0.694824,-0.692383
1582297447738488,0.285645,0.70166,-0.697754
1582297447760436,0.280762,0.70752,-0.697266
1582297447783160,0.279297,0.707031,-0.700195
1582297447798270,0.272949,0.703125,-0.70166
1582297447821059,0.281738,0.70459,-0.70459
1582297447843260,0.280273,0.698242,-0.703613
1582297447857966,0.287598,0.702148,-0.700684
1582297447880930,0.281738,0.694336,-0.698242
1582297447902835,0.282227,0.697754,-0.708984
1582297447917867,0.282715,0.702148,-0.695801
1582297447940742,0.285156,0.700684,-0.694336
1582297447963681,0.282715,0.702148,-0.697266
1582297447977708,0.280273,0.702148,-0.69873
1582297448000581,0.280273,0.702637,-0.705078
1582297448023671,0.285645,0.70166,-0.70166
1582297448037716,0.28418,0.703125,-0.70459
1582297448060752,0.282227,0.69873,-0.708008
1582297448083355,0.286621,0.700195,-0.698242
1582297448097619,0.28418,0.702148,-0.701172
1582297448121254,0.28418,0.703613,-0.701172
1582297448151183,0.279785,0.708008,-0.694824
1582297448164418,0.279785,0.692383,-0.69873
1582297448181101,0.280273,0.692871,-0.703125
1582297448203044,0.277832,0.692383,-0.708496
1582297448224225,0.279297,0.698242,-0.710938
1582297448240934,0.285645,0.700195,-0.710449
1582297448262926,0.289063,0.695801,-0.701172
1582297448284874,0.279297,0.687012,-0.709473
1582297448300778,0.280762,0.703125,-0.70459
1582297448323722,0.283691,0.709473,-0.697754
1582297448344842,0.286621,0.703125,-0.704102
1582297448360793,0.28418,0.681152,-0.702637
1582297448383552,0.283691,0.685059,-0.702148
1582297448404588,0.287109,0.697754,-0.699707
1582297448428435,0.288086,0.697266,-0.70752
1582297448443399,0.289063,0.686035,-0.715332
1582297448464571,0.285156,0.690918,-0.714355
1582297448480474,0.286621,0.697754,-0.706543
1582297448511276,0.289551,0.701172,-0.708496
1582297448524520,0.285156,0.691895,-0.715332
1582297448541138,0.284668,0.682129,-0.706055
1582297448563078,0.288574,0.683105,-0.705566
1582297448584217,0.282715,0.690918,-0.707031
1582297448601029,0.289551,0.692871,-0.708008
1582297448622915,0.283691,0.6875,-0.716797
1582297448645858,0.288086,0.68457,-0.71582
1582297448660865,0.290527,0.682129,-0.717285
1582297448683095,0.29248,0.686523,-0.717773
1582297448706284,0.291016,0.686523,-0.706543
1582297448720691,0.288086,0.696289,-0.694824
1582297448743590,0.286133,0.689941,-0.708496
1582297448765532,0.291504,0.692871,-0.718262
1582297448780490,0.285645,0.68457,-0.720215
1582297448803691,0.284668,0.681641,-0.71582
1582297448825496,0.284668,0.678223,-0.716797
1582297448840330,0.291992,0.691895,-0.710938
1582297448863344,0.286621,0.685059,-0.715332
1582297448886215,0.289551,0.68457,-0.721191
1582297448900229,0.286621,0.679199,-0.712402
1582297448923108,0.288086,0.685547,-0.707031
1582297448946055,0.282227,0.692871,-0.709961
1582297448960014,0.293945,0.680664,-0.719238
1582297448983152,0.290527,0.679199,-0.713379
1582297449005887,0.291504,0.677246,-0.710938
1582297449019865,0.29541,0.690918,-0.710938
1582297449042970,0.290527,0.688965,-0.717773
1582297449065738,0.290039,0.685547,-0.727539
1582297449080046,0.299316,0.681641,-0.719238
1582297449103628,0.294922,0.679688,-0.717773
1582297449125573,0.297363,0.686523,-0.708984
1582297449146590,0.289063,0.6875,-0.719238
1582297449163471,0.292969,0.673828,-0.719727
1582297449185466,0.294434,0.677246,-0.721191
1582297449206397,0.297852,0.676758,-0.713867
1582297449223304,0.29541,0.670898,-0.712402
1582297449246285,0.294434,0.669434,-0.721191
1582297449267219,0.292969,0.679199,-0.719727
1582297449283150,0.30127,0.678711,-0.722168
1582297449306090,0.29834,0.683105,-0.719238
1582297449327241,0.292969,0.680176,-0.720215
1582297449342998,0.289551,0.678711,-0.713867
1582297449365992,0.297363,0.679199,-0.719238
1582297449387069,0.29248,0.681641,-0.714355
1582297449402964,0.299316,0.679199,-0.727051
1582297449425770,0.293945,0.679688,-0.728516
1582297449447175,0.297363,0.67627,-0.723633
1582297449463664,0.290527,0.675293,-0.716797
1582297449485880,0.294434,0.679199,-0.71875
1582297449506585,0.296875,0.67627,-0.720215
1582297449522504,0.300781,0.675781,-0.720703
1582297449545452,0.300293,0.680664,-0.716797
1582297449568448,0.301758,0.679688,-0.711914
1582297449583617,0.300781,0.66748,-0.716797
1582297449605671,0.303223,0.670898,-0.717285
1582297449628239,0.303223,0.671387,-0.716797
1582297449643288,0.308105,0.678223,-0.725098
1582297449666131,0.306641,0.67041,-0.73291
1582297449688247,0.304199,0.671875,-0.724121
1582297449703023,0.303711,0.666992,-0.720215
1582297449725968,0.300781,0.671387,-0.710938
1582297449748020,0.302734,0.664551,-0.708496
1582297449762863,0.30957,0.666504,-0.714844
1582297449786211,0.310547,0.666016,-0.719238
1582297449815731,0.312988,0.666016,-0.71582
1582297449822703,0.305664,0.666504,-0.712402
1582297449845643,0.29834,0.669434,-0.710449
1582297449868623,0.310547,0.670898,-0.717285
1582297449882546,0.326172,0.666504,-0.70459
1582297449905628,0.354004,0.693848,-0.713867
1582297449928422,0.355957,0.641113,-0.783203
1582297449942585,0.376465,0.652832,-0.832031
1582297449965464,0.375488,0.750488,-0.768555
1582297449988262,0.378418,0.842773,-0.719238
1582297450009405,0.462402,0.899902,-0.505859
1582297450026159,0.355957,0.765137,-0.589844
1582297450048106,0.23291,0.731445,-0.589355
1582297450069460,0.237305,0.731934,-0.433594
1582297450093261,0.404785,1.12646,-0.513184
1582297450109939,0.336914,1.15869,-0.530762
1582297450128883,0.322754,1.20459,-0.195313
1582297450145867,0.26709,1.16406,-0.214355
1582297450167983,0.14502,1.10449,-0.351563
1582297450189753,0.121094,1.07227,-0.280762
1582297450205691,0.0966797,1.02246,-0.283203
1582297450228616,0.0541992,0.962891,-0.302246
1582297450249625,-0.00634766,0.944824,-0.337402
1582297450265516,-0.0253906,0.928711,-0.345703
1582297450288470,-0.0878906,0.86377,-0.387207
1582297450309458,-0.14209,0.819824,-0.421875
1582297450325356,-0.144531,0.775879,-0.42334
1582297450348351,-0.14209,0.818359,-0.444336
1582297450369631,-0.102051,0.881348,-0.491211
1582297450385242,-0.0898438,0.881836,-0.529297
1582297450408151,-0.0249023,0.823242,-0.537598
1582297450429476,0.0336914,0.813965,-0.521973
1582297450445104,0.0571289,0.82666,-0.55127
1582297450468292,0.0537109,0.815918,-0.627441
1582297450488982,0.0922852,0.753906,-0.643555
1582297450505042,0.160645,0.710938,-0.579102
1582297450527818,0.220215,0.729004,-0.620117
1582297450550810,0.22168,0.774414,-0.716309
1582297450564779,0.260742,0.783203,-0.719238
1582297450588652,0.250977,0.696777,-0.696777
1582297450610595,0.265137,0.61084,-0.708496
1582297450624985,0.282715,0.591797,-0.744629
1582297450648492,0.291504,0.696289,-0.748535
1582297450670746,0.297363,0.689453,-0.808594
1582297450691759,0.30957,0.626465,-0.807129
1582297450708332,0.360352,0.616699,-0.730469
1582297450731289,0.308594,0.640625,-0.779297
1582297450752261,0.312988,0.606445,-0.806641
1582297450768383,0.327637,0.588379,-0.719238
1582297450791111,0.350098,0.588867,-0.708008
1582297450812053,0.347168,0.605469,-0.722656
1582297450828014,0.275879,0.643555,-0.755371
1582297450851194,0.266113,0.611816,-0.737793
1582297450856002,0.232422,0.62207,-0.757813
1582297450879070,0.244141,0.652344,-0.749023
1582297450896919,0.199219,0.691406,-0.766602
1582297450915788,0.172363,0.682617,-0.772461
1582297450939022,0.139648,0.66748,-0.750488
1582297450954120,0.145508,0.646484,-0.783691
1582297450976622,0.120117,0.683594,-0.834473
1582297450998757,0.0996094,0.805664,-0.833008
1582297451013723,0.109375,0.756348,-0.770996
1582297451036515,0.115234,0.696289,-0.73877
1582297451058610,0.0996094,0.679199,-0.715332
1582297451073358,0.0849609,0.699707,-0.709473
1582297451096650,0.0825195,0.722168,-0.742676
1582297451112475,0.0761719,0.70459,-0.726074
1582297451134200,0.0576172,0.72168,-0.742188
1582297451156131,0.0888672,0.720703,-0.72998
1582297451172090,0.130859,0.714844,-0.687988
1582297451201249,0.165039,0.729004,-0.677246
1582297451216308,0.130859,0.687988,-0.765625
1582297451232939,0.164551,0.673828,-0.813965
1582297451254073,0.23584,0.644043,-0.808105
1582297451276014,0.305176,0.65625,-0.84082
1582297451292771,0.364258,0.675293,-0.893066
1582297451313962,0.394531,0.650391,-0.873535
1582297451336651,0.390137,0.619629,-0.866211
1582297451353815,0.397949,0.581543,-0.905762
1582297451373917,0.398926,0.547852,-0.927734
1582297451396508,0.431152,0.576172,-0.887207
1582297451414443,0.44043,0.57959,-0.842773
1582297451433397,0.4375,0.560547,-0.841797
1582297451456387,0.45459,0.579102,-0.815918
1582297451481886,0.474609,0.563965,-0.765137
1582297451493426,0.452637,0.537109,-0.686035
1582297451516375,0.441406,0.57666,-0.609863
1582297451541103,0.413086,0.648926,-0.614746
1582297451554117,0.334961,0.587891,-0.754883
1582297451576202,0.302734,0.600586,-0.698242
1582297451593964,0.334961,0.711914,-0.532715
1582297451614094,0.374512,0.79834,-0.458008
1582297451636057,0.257813,0.805664,-0.638672
1582297451653989,0.168457,0.756836,-0.695801
1582297451674168,0.131836,0.765137,-0.57666
1582297451696060,0.202637,0.86377,-0.444336
1582297451713644,0.207031,0.897949,-0.51416
1582297451733819,0.125977,0.898926,-0.598633
1582297451757531,0.0712891,0.907715,-0.596191
1582297451774491,0.100098,0.928711,-0.530273
1582297451793855,0.11377,0.925781,-0.540039
1582297451816516,0.0527344,0.889648,-0.588867
1582297451834319,0.0395508,0.915039,-0.553711
1582297451853462,0.0908203,0.984863,-0.51416
1582297451876423,0.0478516,0.952637,-0.51709
1582297451894168,0.00683594,0.87207,-0.514648
1582297451914111,0.0356445,0.80957,-0.479492
1582297451936208,0.111816,0.850098,-0.46875
1582297451954048,0.151855,0.983398,-0.48584
1582297451974322,0.169922,1.04834,-0.470703
1582297452003922,0.14209,0.942383,-0.453125
1582297452013890,0.15918,0.855469,-0.414063
1582297452034020,0.199219,0.904785,-0.399414
1582297452055731,0.192383,0.935547,-0.423828
1582297452073688,0.187012,0.969727,-0.467285
1582297452094624,0.188477,0.963867,-0.539551
1582297452116744,0.225586,0.949707,-0.599609
1582297452134526,0.250977,0.962891,-0.576172
1582297452155460,0.296387,0.854492,-0.530273
1582297452176551,0.342773,0.741211,-0.515137
1582297452194360,0.275879,0.845215,-0.556641
1582297452215299,0.242676,0.862793,-0.659668
1582297452236440,0.283203,0.800781,-0.65625
1582297452254431,0.320313,0.775391,-0.546875
1582297452275143,0.322266,0.773926,-0.578613
1582297452296236,0.32666,0.741699,-0.655273
1582297452314095,0.26416,0.831543,-0.740234
1582297452334983,0.369629,0.980957,-0.709961
1582297452355928,0.339355,0.82666,-0.672363
1582297452373876,0.273926,0.656738,-0.685547
1582297452394827,0.268066,0.662598,-0.664551
1582297452416763,0.314453,0.733398,-0.668457
1582297452434548,0.358398,0.73584,-0.685059
1582297452456661,0.322266,0.776367,-0.676758
1582297452475830,0.321777,0.816406,-0.611816
1582297452493556,0.294434,0.760742,-0.646973
1582297452515718,0.283203,0.617188,-0.716309
1582297452536583,0.297852,0.617188,-0.654785
1582297452560422,0.254395,0.724121,-0.602051
1582297452575456,0.283691,0.786621,-0.614258
1582297452597347,0.302734,0.747559,-0.658203
1582297452613277,0.288086,0.727539,-0.678711
1582297452636174,0.290039,0.739258,-0.676758
1582297452650138,0.28418,0.695801,-0.677246
1582297452673380,0.277344,0.664063,-0.622559
1582297452696014,0.298828,0.664063,-0.632324
1582297452709983,0.299805,0.705566,-0.69873
1582297452732963,0.30957,0.764648,-0.706543
1582297452755857,0.324707,0.799316,-0.67041
1582297452769873,0.322266,0.736328,-0.611816
1582297452792943,0.30957,0.711914,-0.619141
1582297452815866,0.292969,0.728027,-0.677246
1582297452838634,0.320313,0.741211,-0.6875
1582297452853606,0.31543,0.794434,-0.641602
1582297452875770,0.331055,0.823242,-0.616211
1582297452889673,0.39502,0.75,-0.59082
1582297452913495,0.383301,0.733887,-0.602051
1582297452935432,0.339355,0.697754,-0.633301
1582297452957375,0.314453,0.699219,-0.641113
1582297452973524,0.302734,0.70752,-0.652832
1582297452996212,0.274902,0.71582,-0.679199
1582297453017435,0.268066,0.746094,-0.693848
1582297453033308,0.305664,0.746582,-0.71582
1582297453056056,0.279297,0.748047,-0.726074
1582297453077218,0.236816,0.737305,-0.695801
1582297453092955,0.216309,0.694824,-0.683594
1582297453115897,0.255371,0.720703,-0.635742
1582297453143975,0.313965,0.765137,-0.607422
1582297453152846,0.374512,0.787109,-0.599609
1582297453175732,0.322266,0.73584,-0.594727
1582297453197163,0.267578,0.737305,-0.654297
1582297453212631,0.274902,0.693848,-0.635254
1582297453235573,0.321777,0.694336,-0.580566
1582297453256651,0.37207,0.626465,-0.559082
1582297453272472,0.370605,0.520996,-0.609375
1582297453295411,0.364258,0.503906,-0.638184
1582297453317409,0.392578,0.431641,-0.603027
1582297453332558,0.388672,0.44043,-0.586914
1582297453355255,0.365723,0.504395,-0.560547
1582297453378522,0.395996,0.600586,-0.611328
1582297453392156,0.416016,0.878906,-0.618164
1582297453422164,0.312012,1.11572,-0.569824
1582297453438540,0.135254,1.00244,-0.966309
1582297453452990,0.138672,0.882324,-0.853516
1582297453475928,0.198242,0.890137,-0.835938
1582297453497953,0.269043,0.885742,-0.821289
1582297453519812,0.325684,0.820313,-0.794434
1582297453535773,0.339844,0.641602,-0.720215
1582297453557909,0.336914,0.588867,-0.677246
1582297453579863,0.307129,0.640137,-0.613281
1582297453595733,0.288574,0.691895,-0.600586
1582297453618612,0.260254,0.702637,-0.593262
1582297453639549,0.266113,0.711914,-0.558594
1582297453655817,0.244141,0.75293,-0.563965
1582297453685484,0.227539,0.747559,-0.63623
1582297453699539,0.202637,0.877441,-0.756348
1582297453717344,0.280273,0.820801,-0.705078
1582297453738329,0.299805,0.67627,-0.688477
1582297453759570,0.30127,0.667969,-0.736816
1582297453776125,0.230469,0.658691,-0.783203
1582297453798078,0.267578,0.695313,-0.787598
1582297453819443,0.292969,0.704102,-0.703125
1582297453835969,0.283203,0.711914,-0.706543
1582297453858138,0.270508,0.692871,-0.694824
1582297453879000,0.263672,0.698242,-0.711914
1582297453895805,0.274902,0.725098,-0.667969
1582297453917940,0.262207,0.72998,-0.679688
1582297453938695,0.254395,0.713867,-0.687988
1582297453955642,0.249512,0.707031,-0.722168
1582297453978618,0.28125,0.70459,-0.710938
1582297453999734,0.277344,0.692383,-0.703125
1582297454015485,0.277832,0.685547,-0.722168
1582297454038427,0.286133,0.695801,-0.689941
1582297454059533,0.279785,0.691406,-0.704102
1582297454075494,0.279297,0.683105,-0.705566
1582297454098596,0.278809,0.696289,-0.704102
1582297454119396,0.266602,0.703125,-0.712891
1582297454136162,0.254395,0.712891,-0.733887
1582297454158106,0.270508,0.708496,-0.704102
1582297454179378,0.270508,0.720215,-0.714355
1582297454196044,0.246582,0.672363,-0.723633
1582297454225927,0.262695,0.691406,-0.722168
1582297454240881,0.28418,0.714844,-0.703125
1582297454255961,0.287109,0.706055,-0.678223
1582297454277966,0.262695,0.683594,-0.689941
1582297454307707,0.269531,0.684082,-0.6875
1582297454315736,0.269531,0.677246,-0.696777
1582297454345603,0.285645,0.684082,-0.705566
1582297454360567,0.285156,0.694336,-0.70752
1582297454375857,0.284668,0.713379,-0.712402
1582297454398526,0.286621,0.721191,-0.718262
1582297454420402,0.282227,0.73877,-0.720215
1582297454435505,0.279785,0.731934,-0.720703
1582297454458305,0.275391,0.728516,-0.726563
1582297454481239,0.26709,0.706543,-0.723145
1582297454495212,0.26123,0.680664,-0.71875
1582297454518152,0.276367,0.680664,-0.724121
1582297454540097,0.270508,0.655273,-0.729004
1582297454555040,0.268066,0.644043,-0.728027
1582297454577988,0.290039,0.631348,-0.71875
1582297454600922,0.280273,0.625488,-0.713379
1582297454614889,0.27832,0.602051,-0.734375
1582297454637819,0.297363,0.625,-0.748535
1582297454661057,0.291504,0.659668,-0.744141
1582297454674736,0.27832,0.689941,-0.73584
1582297454698655,0.268066,0.708008,-0.724121
1582297454720964,0.277832,0.709473,-0.701172
1582297454734774,0.298828,0.688965,-0.710938
1582297454758495,0.302734,0.670898,-0.721191
1582297454788422,0.294922,0.680664,-0.73291
1582297454809556,0.292969,0.700684,-0.727539
1582297454818515,0.286621,0.722656,-0.716309
1582297454840886,0.274414,0.702148,-0.722168
1582297454862218,0.266113,0.674316,-0.716309
1582297454878499,0.271973,0.666504,-0.704102
1582297454901114,0.279785,0.664551,-0.71875
1582297454922282,0.286621,0.668457,-0.723633
1582297454938015,0.285645,0.672852,-0.723145
1582297454960963,0.28418,0.683594,-0.71875
1582297454982108,0.288574,0.69043,-0.725098
1582297454997959,0.29248,0.700684,-0.720703
1582297455020798,0.287109,0.698242,-0.725098
1582297455041887,0.281738,0.698242,-0.722168
1582297455058702,0.275879,0.696777,-0.720215
1582297455088620,0.272461,0.689453,-0.717773
1582297455103586,0.279785,0.67334,-0.733398
1582297455125517,0.28418,0.651855,-0.728027
1582297455146680,0.285645,0.666504,-0.728516
1582297455161575,0.281738,0.663574,-0.728516
1582297455178610,0.276367,0.673828,-0.724609
1582297455200480,0.281738,0.672363,-0.72998
1582297455221258,0.290039,0.674805,-0.718262
1582297455238298,0.287598,0.683594,-0.720703
1582297455261156,0.282715,0.676758,-0.722168
1582297455283103,0.283691,0.680176,-0.725098
1582297455299049,0.287109,0.682617,-0.731445
1582297455321002,0.279785,0.678711,-0.737793
1582297455342932,0.263672,0.666504,-0.733398
1582297455365933,0.272949,0.653809,-0.725586
1582297455380873,0.285156,0.661621,-0.728516
1582297455402955,0.282227,0.680664,-0.722168
1582297455417785,0.281738,0.683105,-0.730957
1582297455447153,0.282715,0.668457,-0.722168
1582297455463612,0.286621,0.682617,-0.713867
1582297455477640,0.289551,0.692871,-0.708008
1582297455500951,0.295898,0.692871,-0.717285
1582297455530473,0.289551,0.685547,-0.712402
1582297455537419,0.283203,0.6875,-0.712402
1582297455560464,0.282227,0.691406,-0.719727
1582297455583353,0.282715,0.691895,-0.720703
1582297455598316,0.279785,0.680664,-0.706055
1582297455620500,0.28418,0.688477,-0.706543
1582297455643346,0.283203,0.679688,-0.714844
1582297455664244,0.289063,0.68457,-0.726074
1582297455681037,0.279785,0.674805,-0.71875
1582297455702978,0.277344,0.677734,-0.710938
1582297455717928,0.27832,0.681152,-0.709961
1582297455740867,0.285645,0.695313,-0.700195
1582297455762967,0.280762,0.700195,-0.703125
1582297455784829,0.283691,0.700684,-0.706543
1582297455808687,0.281738,0.694336,-0.70459
1582297455823649,0.280273,0.696777,-0.708008
1582297455844776,0.287598,0.695313,-0.711426
1582297455860584,0.282227,0.688477,-0.714844
1582297455891525,0.28125,0.69043,-0.714844
1582297455892461,0.275879,0.683105,-0.717285
1582297455920399,0.280762,0.68457,-0.711426
1582297455926777,0.285156,0.692871,-0.715332
1582297455949318,0.28125,0.699707,-0.70459
1582297455974248,0.291016,0.70166,-0.708496
1582297455986398,0.289551,0.691406,-0.708008
1582297456009188,0.286133,0.675781,-0.707031
1582297456026888,0.285645,0.67627,-0.704102
1582297456046517,0.285645,0.688965,-0.708984
1582297456069181,0.289063,0.69043,-0.718262
1582297456086014,0.26416,0.697754,-0.727051
1582297456105894,0.278809,0.693359,-0.724609
1582297456129019,0.288086,0.680664,-0.717285
1582297456146781,0.278809,0.687012,-0.712891
1582297456166219,0.291992,0.695801,-0.703125
1582297456188709,0.293945,0.691406,-0.703125
1582297456206620,0.287598,0.672363,-0.720703
1582297456225795,0.294922,0.691406,-0.705566
1582297456251714,0.282715,0.688965,-0.716309
1582297456266462,0.274902,0.699219,-0.708496
1582297456286452,0.279297,0.692871,-0.697754
1582297456308791,0.284668,0.682617,-0.71582
1582297456326827,0.282227,0.688477,-0.720215
1582297456346341,0.265137,0.677246,-0.708984
1582297456376359,0.280762,0.716797,-0.723633
1582297456386849,0.272949,0.688965,-0.695313
1582297456406511,0.324707,0.679688,-0.712402
1582297456429055,0.302246,0.666016,-0.733887
1582297456446519,0.245605,0.729492,-0.73584
1582297456482972,0.265137,0.751465,-0.679688
1582297456488917,0.297852,0.666016,-0.727051
1582297456506818,0.287109,0.662598,-0.697266
1582297456526172,0.291016,0.691895,-0.702637
1582297456549004,0.276367,0.716309,-0.702148
1582297456566669,0.279785,0.714355,-0.708984
1582297456586607,0.291016,0.693359,-0.696777
1582297456611701,0.310059,0.692383,-0.715332
1582297456626921,0.299805,0.655762,-0.70166
1582297456646508,0.275879,0.71875,-0.71582
1582297456668515,0.258301,0.718262,-0.691406
1582297456686352,0.274902,0.731934,-0.706543
1582297456706437,0.283691,0.679688,-0.70752
1582297456728418,0.304688,0.668457,-0.700195
1582297456754156,0.302246,0.671387,-0.696289
1582297456767500,0.28125,0.701172,-0.701172
1582297456789108,0.264648,0.702637,-0.705566
1582297456806463,0.279297,0.69043,-0.710938
1582297456827967,0.281738,0.665527,-0.706543
1582297456849115,0.296875,0.677734,-0.713379
1582297456866862,0.282715,0.693848,-0.705566
1582297456887800,0.275391,0.708496,-0.708496
1582297456908983,0.268555,0.689453,-0.70752
1582297456926696,0.297363,0.70166,-0.705566
1582297456953832,0.296875,0.685059,-0.714844
1582297456968808,0.289063,0.715332,-0.706543
1582297456986541,0.269043,0.71875,-0.696289
1582297457009481,0.27832,0.72168,-0.693848
1582297457030464,0.286621,0.691895,-0.710938
1582297457046976,0.286621,0.697754,-0.710938
1582297457067352,0.289063,0.703613,-0.703613
1582297457088323,0.287109,0.701172,-0.70459
1582297457106214,0.282715,0.686035,-0.695801
1582297457127288,0.286621,0.680664,-0.708984
1582297457149149,0.281738,0.689941,-0.708008
1582297457166801,0.288574,0.699707,-0.705078
1582297457188995,0.287598,0.712891,-0.697266
1582297457209135,0.283203,0.704102,-0.696289
1582297457226890,0.279297,0.683594,-0.703613
1582297457249116,0.287109,0.686523,-0.708496
1582297457268960,0.294922,0.69873,-0.702148
1582297457286734,0.289551,0.709961,-0.696777
1582297457308852,0.279785,0.706543,-0.699219
1582297457328807,0.285645,0.696289,-0.697266
1582297457346577,0.285645,0.706055,-0.701172
1582297457369518,0.288086,0.702637,-0.70459
1582297457396561,0.28418,0.695801,-0.710449
1582297457406427,0.282715,0.692871,-0.699219
1582297457429489,0.28125,0.693359,-0.696289
1582297457449298,0.281738,0.6875,-0.703125
1582297457466300,0.287109,0.683105,-0.711426
1582297457488196,0.287598,0.70459,-0.70459
1582297457509182,0.28125,0.703125,-0.703125
1582297457526092,0.283203,0.690918,-0.710449
1582297457548091,0.283691,0.679688,-0.699707
1582297457586155,0.286621,0.685547,-0.704102
1582297457588928,0.286621,0.709473,-0.709473
1582297457608213,0.278809,0.702637,-0.706055
1582297457629061,0.281738,0.687988,-0.702148
1582297457645836,0.289551,0.686523,-0.69873
1582297457667911,0.298828,0.699707,-0.702148
1582297457689784,0.285156,0.697266,-0.706055
1582297457705615,0.285645,0.708984,-0.704102
1582297457728548,0.28125,0.697754,-0.70459
1582297457749704,0.283203,0.686523,-0.703613
1582297457765495,0.286133,0.690918,-0.694824
1582297457788391,0.282715,0.697754,-0.698242
1582297457809492,0.287109,0.708008,-0.699707
1582297457825420,0.290527,0.700684,-0.699219
1582297457849225,0.289063,0.699219,-0.695801
1582297457869386,0.276367,0.697754,-0.706543
1582297457886135,0.270996,0.700195,-0.72168
1582297457908362,0.285156,0.687988,-0.716309
1582297457929069,0.280273,0.697754,-0.716797
1582297457945968,0.277832,0.683105,-0.70166
1582297457967953,0.28125,0.688965,-0.695313
1582297457989909,0.278809,0.671875,-0.703613
1582297458005953,0.291504,0.675781,-0.698242
1582297458028918,0.283203,0.674316,-0.710449
1582297458049856,0.281738,0.692383,-0.708496
1582297458065883,0.282715,0.697266,-0.707031
1582297458088586,0.285645,0.699707,-0.714844
1582297458110533,0.283691,0.69043,-0.722168
1582297458133473,0.289063,0.715332,-0.713379
1582297458148476,0.287109,0.716797,-0.727051
1582297458170368,0.296387,0.71582,-0.725098
1582297458185466,0.283691,0.677734,-0.717285
1582297458208546,0.279785,0.691406,-0.70459
1582297458230399,0.281738,0.698242,-0.706055
1582297458245417,0.277832,0.68457,-0.707031
1582297458268109,0.274902,0.673828,-0.71875
1582297458291045,0.278809,0.67041,-0.727539
1582297458312129,0.283203,0.666992,-0.713379
1582297458327994,0.294922,0.680176,-0.719238
1582297458350945,0.290527,0.679199,-0.720703
1582297458364903,0.282227,0.68457,-0.719727
1582297458387785,0.27832,0.694824,-0.70459
1582297458417040,0.271973,0.691895,-0.712402
1582297458424687,0.274414,0.688965,-0.714355
1582297458448622,0.285156,0.679688,-0.72168
1582297458470675,0.285645,0.677734,-0.71875
1582297458484742,0.283691,0.683105,-0.718262
1582297458508462,0.280273,0.681152,-0.714844
1582297458530460,0.279297,0.678223,-0.720703
1582297458545369,0.283691,0.666504,-0.719727
1582297458568302,0.287109,0.680176,-0.713867
1582297458590434,0.285645,0.693359,-0.712891
1582297458612288,0.278809,0.692383,-0.723633
1582297458628482,0.278809,0.676758,-0.722168
1582297458651080,0.28418,0.680664,-0.717285
1582297458672437,0.282715,0.677734,-0.725098
1582297458695960,0.280273,0.675293,-0.712891
1582297458710927,0.276855,0.67334,-0.704102
1582297458732056,0.270508,0.667969,-0.709961
1582297458747829,0.277832,0.67627,-0.71875
1582297458770769,0.281738,0.686523,-0.721191
1582297458791944,0.28125,0.689941,-0.720215
1582297458808660,0.282715,0.697754,-0.71582
1582297458830605,0.283691,0.696777,-0.722656
1582297458851701,0.289063,0.680664,-0.732422
1582297458868545,0.290527,0.6875,-0.731445
1582297458890479,0.288574,0.681152,-0.720703
1582297458911428,0.28418,0.682129,-0.71875
1582297458928339,0.291992,0.685547,-0.719727
1582297458950471,0.287109,0.68457,-0.718262
1582297458972266,0.285645,0.681152,-0.726563
1582297458988232,0.286621,0.677246,-0.727051
1582297459010311,0.286133,0.671387,-0.719238
1582297459032261,0.289551,0.679199,-0.713379
1582297459048255,0.287109,0.67627,-0.723633
1582297459070959,0.284668,0.67041,-0.720703
1582297459092908,0.287109,0.668945,-0.719238
1582297459108090,0.285645,0.669922,-0.727051
1582297459131100,0.284668,0.668945,-0.736816
1582297459153740,0.286133,0.679199,-0.734375
1582297459167770,0.283691,0.67334,-0.732422
1582297459190642,0.281738,0.667969,-0.729004
1582297459220570,0.286621,0.672363,-0.727539
1582297459227757,0.286621,0.682617,-0.736328
1582297459250479,0.282227,0.679688,-0.725586
1582297459273416,0.282715,0.679688,-0.728516
1582297459287383,0.279785,0.671875,-0.723633
1582297459310365,0.292969,0.658203,-0.721191
1582297459333323,0.275879,0.658203,-0.728027
1582297459347264,0.274414,0.67334,-0.720215
1582297459370166,0.283691,0.672852,-0.729492
1582297459393284,0.290039,0.665039,-0.728516
1582297459407066,0.297363,0.662109,-0.731934
1582297459431001,0.290039,0.689941,-0.730957
1582297459453546,0.287598,0.708496,-0.720703
1582297459467907,0.283203,0.711914,-0.715332
1582297459497816,0.282227,0.701172,-0.710938
1582297459512957,0.279785,0.691406,-0.712402
1582297459527800,0.285156,0.689453,-0.698242
1582297459550678,0.29248,0.695801,-0.695801
1582297459580847,0.289551,0.69873,-0.70459
1582297459594731,0.291504,0.689453,-0.711914
1582297459610521,0.290527,0.677246,-0.714844
1582297459633518,0.290039,0.671387,-0.71875
1582297459654448,0.28418,0.67627,-0.714844
1582297459670701,0.283203,0.676758,-0.713379
1582297459693316,0.284668,0.666504,-0.723633
1582297459714430,0.278809,0.664063,-0.733398
1582297459731219,0.277832,0.659668,-0.736816
1582297459753199,0.27832,0.672852,-0.744629
1582297459774445,0.280762,0.680176,-0.730957
1582297459791037,0.283203,0.678711,-0.726563
1582297459813148,0.279785,0.676758,-0.72998
1582297459834314,0.280273,0.67627,-0.720703
1582297459851130,0.285645,0.680176,-0.719727
1582297459872926,0.287598,0.67627,-0.721191
1582297459894754,0.28418,0.668457,-0.727539
1582297459911042,0.285156,0.675293,-0.724121
1582297459932847,0.287109,0.674316,-0.722168
1582297459954592,0.286621,0.672852,-0.725586
1582297459970551,0.287109,0.680664,-0.722168
1582297459993491,0.288574,0.685059,-0.708984
1582297460015781,0.277832,0.686523,-0.720215
1582297460030396,0.283691,0.6875,-0.712891
1582297460053341,0.286621,0.69043,-0.712891
1582297460083277,0.286133,0.685059,-0.717773
1582297460090271,0.284668,0.680176,-0.71582
1582297460113228,0.285645,0.683594,-0.716309
1582297460136108,0.288574,0.685059,-0.719238
1582297460150390,0.285645,0.678223,-0.730469
1582297460173013,0.277832,0.6875,-0.722656
1582297460195998,0.265137,0.712402,-0.701172
1582297460210084,0.302246,0.663574,-0.71582
1582297460232941,0.291992,0.674316,-0.757813
1582297460255942,0.282715,0.686523,-0.716797
1582297460270073,0.278809,0.705566,-0.737305
1582297460292739,0.275879,0.676758,-0.731934
1582297460315632,0.286133,0.663086,-0.71582
1582297460330596,0.282715,0.681152,-0.705566
1582297460353526,0.288574,0.700684,-0.717285
1582297460376466,0.282227,0.6875,-0.716309
1582297460390429,0.287598,0.67334,-0.715332
1582297460413624,0.289551,0.675293,-0.709961
1582297460435351,0.305664,0.679688,-0.704102
1582297460450285,0.269531,0.689453,-0.728516
1582297460473205,0.288574,0.70752,-0.70752
1582297460496145,0.268555,0.662598,-0.73291
1582297460518093,0.306152,0.686035,-0.702148
1582297460533260,0.279297,0.655273,-0.724121
1582297460555983,0.279297,0.71582,-0.70752
1582297460576984,0.257324,0.699707,-0.728516
1582297460592886,0.273438,0.685547,-0.729492
1582297460615891,0.286621,0.665527,-0.738281
1582297460638347,0.284668,0.675781,-0.728027
1582297460652740,0.27832,0.684082,-0.716309
1582297460675671,0.282227,0.681641,-0.720703
1582297460696666,0.279297,0.672852,-0.719238
1582297460713571,0.275879,0.679199,-0.71875
1582297460735792,0.280273,0.69873,-0.712891
1582297460756823,0.28418,0.688965,-0.71875
1582297460773403,0.277344,0.666992,-0.712891
1582297460795489,0.283203,0.67041,-0.722168
1582297460817292,0.280762,0.687012,-0.722168
1582297460833495,0.28418,0.697754,-0.723633
1582297460855662,0.282715,0.683594,-0.720703
1582297460877339,0.281738,0.679199,-0.724121
1582297460893325,0.286133,0.694824,-0.710938
1582297460899066,0.28125,0.686523,-0.71582
1582297460921014,0.280273,0.678711,-0.720703
1582297460943999,0.279785,0.672363,-0.716797
1582297460959006,0.280273,0.667969,-0.716797
1582297460981082,0.281738,0.675781,-0.71582
1582297461003785,0.274902,0.666992,-0.73291
1582297461019052,0.279785,0.67041,-0.734375
1582297461041693,0.282227,0.682129,-0.71582
1582297461063828,0.296387,0.694824,-0.71875
1582297461078787,0.287598,0.687012,-0.712891
1582297461101616,0.285645,0.686035,-0.720703
1582297461123947,0.276367,0.688477,-0.720703
1582297461138788,0.284668,0.687988,-0.72998
1582297461161409,0.286133,0.683105,-0.728516
1582297461192423,0.283691,0.67334,-0.731934
1582297461198727,0.283203,0.679199,-0.734375
1582297461221269,0.283691,0.682617,-0.722168
1582297461243290,0.28125,0.683105,-0.710449
1582297461259171,0.28125,0.696777,-0.710449
1582297461281269,0.282227,0.693359,-0.709961
1582297461304043,0.288086,0.689453,-0.714355
1582297461318943,0.287109,0.682617,-0.716797
1582297461341414,0.28418,0.683105,-0.712891
1582297461364008,0.288086,0.680664,-0.71875
1582297461379004,0.286621,0.680664,-0.723633
1582297461401761,0.28418,0.679199,-0.720703
1582297461423899,0.280273,0.683594,-0.727539
1582297461438780,0.284668,0.691406,-0.721191
1582297461461623,0.279785,0.679199,-0.722656
1582297461483674,0.279297,0.678223,-0.727051
1582297461498641,0.290527,0.673828,-0.703613
1582297461521457,0.278809,0.679199,-0.729492
1582297461543533,0.268555,0.71875,-0.718262
1582297461560304,0.271973,0.647461,-0.722168
1582297461581472,0.304199,0.689941,-0.72168
1582297461599193,0.271484,0.643555,-0.73291
1582297461620143,0.300293,0.69873,-0.698242
1582297461641286,0.275879,0.672852,-0.727539
1582297461659453,0.280273,0.706543,-0.714844
1582297461679981,0.267578,0.664063,-0.737793
1582297461701113,0.300293,0.696289,-0.72168
1582297461718876,0.272949,0.65625,-0.725098
1582297461747796,0.282227,0.685059,-0.717285
1582297461761067,0.274414,0.657715,-0.733887
1582297461778714,0.299316,0.68457,-0.722168
1582297461801985,0.282715,0.679199,-0.72998
1582297461820650,0.289063,0.684082,-0.726074
1582297461838791,0.286621,0.675781,-0.728516
1582297461860495,0.288086,0.67627,-0.713379
1582297461884431,0.281738,0.672363,-0.722656
1582297461899388,0.284668,0.677246,-0.716797
1582297461921845,0.285645,0.672852,-0.727051
1582297461941480,0.282715,0.673828,-0.722168
1582297461959418,0.285156,0.675781,-0.725586
1582297461981577,0.283691,0.683105,-0.727051
1582297462009145,0.286133,0.67334,-0.72168
1582297462025052,0.286621,0.67334,-0.716797
1582297462041480,0.285645,0.680664,-0.71582
1582297462061211,0.287109,0.677734,-0.720215
1582297462078911,0.289063,0.678711,-0.723633
1582297462101847,0.282715,0.678223,-0.730469
1582297462120859,0.281738,0.673828,-0.720215
1582297462139422,0.285156,0.673828,-0.722168
1582297462161693,0.287109,0.677246,-0.717773
1582297462181634,0.282715,0.6875,-0.722168
1582297462199024,0.27832,0.685059,-0.725586
1582297462221532,0.285645,0.681152,-0.723633
1582297462241591,0.280762,0.677734,-0.728027
1582297462259513,0.282715,0.676758,-0.733398
1582297462281411,0.288086,0.67334,-0.725586
1582297462301491,0.287598,0.675781,-0.73291
1582297462319274,0.286133,0.686035,-0.72168
1582297462341945,0.287109,0.6875,-0.716797
1582297462362541,0.289063,0.6875,-0.710938
1582297462379108,0.283691,0.680176,-0.713379
1582297462401453,0.285645,0.669434,-0.720703
1582297462421002,0.287598,0.676758,-0.713867
1582297462438945,0.282227,0.681641,-0.710449
1582297462461884,0.28125,0.689453,-0.716309
1582297462482875,0.276855,0.67627,-0.725098
1582297462498788,0.28125,0.677246,-0.71875
1582297462521723,0.285645,0.683105,-0.720703
1582297462542735,0.285156,0.693359,-0.719238
1582297462558625,0.282715,0.702148,-0.72168
1582297462580741,0.278809,0.695313,-0.724609
1582297462601752,0.280273,0.684082,-0.728027
1582297462618485,0.27832,0.664551,-0.724609
1582297462640466,0.288086,0.676758,-0.713379
1582297462662412,0.287109,0.685059,-0.720215
1582297462678535,0.283203,0.684082,-0.719238
1582297462700435,0.282227,0.672363,-0.71875
1582297462722507,0.286133,0.675293,-0.711426
1582297462738436,0.280273,0.679688,-0.722168
1582297462761085,0.282715,0.688477,-0.713379
1582297462782221,0.288574,0.695801,-0.713379
1582297462797993,0.289063,0.695313,-0.710938
1582297462820929,0.28418,0.680176,-0.703125
1582297462842866,0.276367,0.670898,-0.712402
1582297462858829,0.277344,0.675293,-0.716309
1582297462881077,0.288086,0.686523,-0.725586
1582297462902715,0.289063,0.688477,-0.725586
1582297462918134,0.280273,0.689453,-0.722656
1582297462940916,0.27832,0.677734,-0.720215
1582297462963547,0.28418,0.689941,-0.708984
1582297462977546,0.288574,0.696777,-0.713867
1582297463000444,0.282227,0.694336,-0.717773
1582297463023389,0.282715,0.688965,-0.71875
1582297463037349,0.282715,0.685547,-0.716309
1582297463060649,0.287598,0.687012,-0.721191
1582297463083282,0.277832,0.67627,-0.723145
1582297463097258,0.27832,0.681152,-0.727539
1582297463121121,0.27832,0.681641,-0.719238
1582297463143065,0.284668,0.691406,-0.720215
1582297463157606,0.285645,0.691406,-0.712402
1582297463181029,0.282715,0.686035,-0.711914
1582297463203042,0.284668,0.688477,-0.705078
1582297463225896,0.290039,0.693848,-0.70459
1582297463247964,0.287598,0.691406,-0.711914
1582297463262806,0.278809,0.686523,-0.720215
1582297463277758,0.283203,0.679199,-0.720703
1582297463300905,0.279297,0.673828,-0.727539
1582297463323580,0.279785,0.678223,-0.723145
1582297463344737,0.276855,0.678223,-0.720703
1582297463360655,0.279785,0.677734,-0.717773
1582297463383483,0.275391,0.687012,-0.722656
1582297463411545,0.283203,0.694336,-0.712891
1582297463420327,0.284668,0.689453,-0.713867
1582297463443265,0.281738,0.683105,-0.71875
1582297463464407,0.285156,0.672852,-0.714844
1582297463480357,0.287598,0.682129,-0.716797
1582297463503190,0.283203,0.687012,-0.719238
1582297463524185,0.285156,0.688477,-0.71582
1582297463540997,0.283691,0.676758,-0.712402
1582297463563065,0.285156,0.678223,-0.712891
1582297463585886,0.283203,0.685547,-0.717773
1582297463600902,0.287598,0.683594,-0.720215
1582297463622835,0.28125,0.68457,-0.724121
1582297463644787,0.283691,0.685547,-0.713867
1582297463660965,0.27832,0.684082,-0.714844
1582297463683615,0.282227,0.686035,-0.718262
1582297463704668,0.279297,0.685547,-0.720703
1582297463720577,0.282227,0.686523,-0.720703
1582297463743455,0.284668,0.681152,-0.71875
1582297463765458,0.282227,0.678223,-0.719727
1582297463780416,0.275879,0.669434,-0.718262
1582297463803296,0.280273,0.686523,-0.714355
1582297463825735,0.283691,0.694824,-0.717773
1582297463840253,0.277832,0.685059,-0.720703
1582297463863202,0.290527,0.683594,-0.718262
1582297463886075,0.284668,0.682617,-0.720215
1582297463907174,0.28418,0.694824,-0.714355
1582297463922987,0.28125,0.685547,-0.708984
1582297463945915,0.282227,0.687012,-0.719727
1582297463967863,0.279297,0.680664,-0.723145
1582297463982904,0.287109,0.694336,-0.70752
1582297464005760,0.283691,0.688965,-0.716797
1582297464019722,0.28125,0.68457,-0.710938
1582297464043674,0.283691,0.674805,-0.712891
1582297464065596,0.282715,0.677734,-0.713379
1582297464079727,0.283691,0.68457,-0.714355
1582297464103495,0.283203,0.688965,-0.710938
1582297464125437,0.281738,0.6875,-0.717285
1582297464140395,0.285156,0.677246,-0.71582
1582297464163591,0.280273,0.673828,-0.714844
1582297464185284,0.284668,0.683594,-0.716309
1582297464200288,0.286621,0.6875,-0.715332
1582297464223237,0.289551,0.691895,-0.720215
1582297464246168,0.283691,0.68457,-0.723633
1582297464267251,0.282227,0.681152,-0.718262
1582297464283149,0.287109,0.681641,-0.712402
1582297464305951,0.280762,0.684082,-0.71875
1582297464327101,0.283691,0.692871,-0.710938
1582297464342859,0.282715,0.686523,-0.718262
1582297464365795,0.287109,0.680664,-0.720215
1582297464386736,0.284668,0.675293,-0.726074
1582297464402695,0.288574,0.688965,-0.715332
1582297464425647,0.285156,0.697266,-0.713867
1582297464446630,0.282715,0.690918,-0.723633
1582297464463575,0.289063,0.677246,-0.720215
1582297464485646,0.283203,0.680664,-0.710449
1582297464506556,0.283203,0.6875,-0.714844
1582297464523369,0.277832,0.687988,-0.717285
1582297464545427,0.279297,0.69043,-0.719727
1582297464567304,0.283691,0.681152,-0.715332
1582297464583467,0.28125,0.680176,-0.717773
1582297464606148,0.287109,0.681641,-0.713379
1582297464634651,0.281738,0.683105,-0.711426
1582297464643053,0.285645,0.688965,-0.708984
1582297464665990,0.280762,0.687012,-0.71582
1582297464686988,0.286133,0.6875,-0.718262
1582297464702888,0.279297,0.69043,-0.719238
1582297464725828,0.286621,0.683594,-0.719238
1582297464747926,0.280762,0.680176,-0.719238
1582297464763726,0.281738,0.679199,-0.713379
1582297464785887,0.285156,0.68457,-0.716797
1582297464808608,0.28125,0.686523,-0.710449
1582297464823571,0.285645,0.685059,-0.719727
1582297464845744,0.276367,0.678223,-0.72168
1582297464868507,0.287598,0.684082,-0.71582
1582297464882546,0.28125,0.686035,-0.717285
1582297464905405,0.282715,0.692383,-0.713867
1582297464928346,0.285156,0.695313,-0.711914
1582297464942261,0.283203,0.691406,-0.713867
1582297464965404,0.281738,0.69043,-0.714355
1582297464988132,0.275391,0.683594,-0.71582
1582297465002845,0.280762,0.680176,-0.709961
1582297465026026,0.280762,0.67627,-0.715332
1582297465047980,0.286621,0.686523,-0.723145
1582297465062926,0.28125,0.689941,-0.727051
1582297465085864,0.272949,0.686035,-0.726074
1582297465107994,0.28125,0.683105,-0.713379
1582297465122773,0.286621,0.681641,-0.711426
1582297465145706,0.284668,0.68457,-0.707031
1582297465167844,0.283203,0.693359,-0.712402
1582297465182669,0.283203,0.687012,-0.702148
1582297465205545,0.280273,0.686035,-0.713379
1582297465228542,0.284668,0.680176,-0.71582
1582297465249681,0.28125,0.688477,-0.722168
1582297465265770,0.280762,0.692383,-0.713867
1582297465288371,0.277832,0.682617,-0.717285
1582297465309648,0.28125,0.681641,-0.71582
1582297465325420,0.283691,0.6875,-0.707031
1582297465356143,0.280273,0.694336,-0.719727
1582297465369329,0.276367,0.695313,-0.717773
1582297465386061,0.282715,0.686523,-0.720215
1582297465409201,0.28418,0.687012,-0.712891
1582297465429002,0.285156,0.680176,-0.712402
1582297465445964,0.28418,0.680664,-0.708496
1582297465468839,0.28125,0.685547,-0.719727
1582297465489783,0.281738,0.688477,-0.719727
1582297465505740,0.28418,0.695313,-0.710449
1582297465528026,0.282715,0.686523,-0.717285
1582297465549679,0.28418,0.684082,-0.708496
1582297465565583,0.28418,0.681152,-0.705566
1582297465588527,0.283691,0.691895,-0.711426
1582297465609720,0.286621,0.690918,-0.719727
1582297465633454,0.282227,0.686523,-0.714844
1582297465648404,0.282227,0.680176,-0.721191
1582297465670340,0.280273,0.687988,-0.708984
1582297465685466,0.283203,0.692383,-0.712891
1582297465708264,0.280762,0.683594,-0.71582
1582297465731137,0.282715,0.679688,-0.711426
1582297465746097,0.28125,0.6875,-0.712402
1582297465768050,0.279785,0.689453,-0.716797
1582297465791034,0.283691,0.693848,-0.720703
1582297465805985,0.282227,0.688965,-0.714844
1582297465827929,0.285156,0.688965,-0.708496
1582297465850817,0.280273,0.685547,-0.714355
1582297465864794,0.282715,0.680664,-0.711914
1582297465887886,0.275391,0.682617,-0.723633
1582297465911009,0.282715,0.693359,-0.714355
1582297465924675,0.278809,0.6875,-0.72168
1582297465932603,0.275391,0.679199,-0.717773
1582297465954745,0.279297,0.680176,-0.709473
1582297465976488,0.282715,0.689941,-0.722168
1582297465992441,0.279785,0.69043,-0.710938
1582297466013610,0.280273,0.682617,-0.710449
1582297466036441,0.282227,0.68457,-0.712891
1582297466052444,0.282715,0.680664,-0.714844
1582297466073731,0.279785,0.688965,-0.71875
1582297466096297,0.282227,0.682129,-0.727539
1582297466112448,0.280273,0.68457,-0.717773
1582297466134061,0.280762,0.680664,-0.721191
1582297466156149,0.282715,0.685547,-0.711914
1582297466172138,0.279297,0.687012,-0.720703
1582297466194097,0.282715,0.693359,-0.725098
1582297466216301,0.282227,0.685059,-0.719238
1582297466232834,0.28125,0.681641,-0.71875
1582297466253799,0.282715,0.672852,-0.719238
1582297466275684,0.279785,0.684082,-0.713379
1582297466292635,0.281738,0.695313,-0.711914
1582297466313833,0.282715,0.690918,-0.720215
1582297466335889,0.287109,0.682617,-0.719727
1582297466352582,0.280273,0.685547,-0.71875
1582297466373610,0.280273,0.688477,-0.724121
1582297466396553,0.281738,0.678711,-0.715332
1582297466412683,0.276367,0.679199,-0.723633
1582297466433704,0.286621,0.685059,-0.717773
1582297466456385,0.284668,0.689453,-0.717773
1582297466472157,0.287109,0.6875,-0.717773
1582297466494158,0.280762,0.682617,-0.714355
1582297466516240,0.283203,0.685059,-0.719727
1582297466532417,0.283203,0.680176,-0.716309
1582297466553935,0.285645,0.683594,-0.718262
1582297466577872,0.282715,0.684082,-0.720703
1582297466592838,0.281738,0.686035,-0.71875
1582297466613978,0.28418,0.682617,-0.717773
1582297466638974,0.282227,0.677734,-0.717773
1582297466654090,0.279785,0.679199,-0.723633
1582297466674020,0.283691,0.686035,-0.713379
1582297466696554,0.280762,0.686035,-0.720703
1582297466714062,0.287598,0.682617,-0.716797
1582297466733659,0.287109,0.677246,-0.731445
1582297466756578,0.283691,0.679688,-0.72168
1582297466774349,0.282715,0.682129,-0.719727
1582297466793597,0.285645,0.686035,-0.703125
1582297466816576,0.283203,0.679199,-0.712402
1582297466834194,0.281738,0.67334,-0.715332
1582297466853139,0.282227,0.675781,-0.714844
1582297466876240,0.283203,0.681641,-0.719238
1582297466894042,0.286621,0.685059,-0.71875
1582297466914040,0.279785,0.685547,-0.724609
1582297466935917,0.282227,0.679199,-0.726563
1582297466954053,0.28418,0.67627,-0.717773
1582297466973994,0.280762,0.685059,-0.713379
1582297466995797,0.281738,0.682129,-0.725098
1582297467021692,0.279297,0.684082,-0.722168
1582297467033828,0.277344,0.688477,-0.720703
1582297467055809,0.280273,0.680664,-0.712891
1582297467074233,0.286133,0.67334,-0.720703
1582297467093644,0.283203,0.674805,-0.721191
1582297467116621,0.283691,0.681152,-0.724609
1582297467133451,0.287598,0.687988,-0.71875
1582297467153391,0.285645,0.685059,-0.71875
1582297467176421,0.281738,0.689941,-0.713379
1582297467194319,0.279785,0.688477,-0.712402
1582297467213394,0.283691,0.676758,-0.72168
1582297467236110,0.281738,0.682129,-0.714844
1582297467254312,0.279297,0.6875,-0.714844
1582297467275010,0.28125,0.687988,-0.716797
1582297467299012,0.282227,0.67627,-0.723145
1582297467313911,0.280273,0.68457,-0.717285
1582297467335057,0.28125,0.684082,-0.719238
1582297467351801,0.278809,0.688477,-0.720215
1582297467373750,0.285156,0.68457,-0.720215
1582297467394693,0.285156,0.680664,-0.724609
1582297467411817,0.283203,0.681641,-0.720215
1582297467433992,0.28125,0.687988,-0.714844
1582297467454969,0.283691,0.690918,-0.715332
1582297467471487,0.280762,0.676758,-0.721191
1582297467494423,0.280273,0.678223,-0.714844
1582297467515419,0.285645,0.677246,-0.72168
1582297467531320,0.269043,0.679688,-0.740234
1582297467553311,0.26709,0.694824,-0.702637
1582297467575707,0.296875,0.687012,-0.714355
1582297467590187,0.301758,0.666016,-0.723145
1582297467613289,0.286133,0.698242,-0.706055
1582297467636041,0.276855,0.703125,-0.714355
1582297467650319,0.28418,0.687988,-0.72168
1582297467673054,0.279297,0.661621,-0.730469
1582297467695955,0.274414,0.678711,-0.714844
1582297467710842,0.275391,0.687988,-0.719727
1582297467732879,0.278809,0.669434,-0.72168
1582297467755781,0.285645,0.682129,-0.720703
1582297467769683,0.289063,0.687012,-0.720215
1582297467792888,0.286133,0.692871,-0.703125
1582297467815729,0.279785,0.686523,-0.71582
1582297467830018,0.283691,0.692871,-0.726563
1582297467853459,0.277344,0.685547,-0.70459
1582297467875407,0.279785,0.709473,-0.724609
1582297467890363,0.265625,0.655273,-0.722656
1582297467913300,0.288574,0.685059,-0.713867
1582297467935505,0.277344,0.668945,-0.73584
1582297467950402,0.28125,0.686035,-0.719727
1582297467973426,0.288574,0.696289,-0.713867
1582297467996078,0.286133,0.681641,-0.720215
1582297468017215,0.28125,0.6875,-0.714355
1582297468032985,0.275879,0.689941,-0.708496
1582297468055916,0.287598,0.687988,-0.71875
1582297468077373,0.280762,0.686523,-0.723633
1582297468092876,0.278809,0.68457,-0.725586
1582297468115806,0.280762,0.679688,-0.714844
1582297468136786,0.28125,0.686035,-0.716797
1582297468152659,0.283691,0.685059,-0.716797
1582297468175600,0.279785,0.693359,-0.714355
1582297468196708,0.28125,0.683594,-0.716797
1582297468213495,0.287109,0.679199,-0.718262
1582297468235437,0.282715,0.688477,-0.721191
1582297468256531,0.279297,0.686035,-0.726074
1582297468273344,0.280762,0.681152,-0.717285
1582297468295324,0.280762,0.682617,-0.727539
1582297468317281,0.280273,0.680176,-0.720215
1582297468333238,0.280762,0.687012,-0.713867
1582297468356116,0.286133,0.686035,-0.718262
1582297468377323,0.28418,0.692383,-0.711914
1582297468393027,0.279297,0.68457,-0.714844
1582297468416000,0.281738,0.680176,-0.720215
1582297468436902,0.286133,0.677734,-0.719727
1582297468452859,0.287109,0.696289,-0.712891
1582297468475802,0.276855,0.686035,-0.711914
1582297468496953,0.277344,0.67627,-0.717285
1582297468512764,0.282715,0.676758,-0.719238
1582297468535946,0.28125,0.680176,-0.720703
1582297468558575,0.27832,0.686035,-0.726074
1582297468573532,0.282715,0.692383,-0.726563
1582297468595755,0.275391,0.678711,-0.720215
1582297468618413,0.282715,0.683594,-0.716797
1582297468633422,0.279297,0.677246,-0.715332
1582297468655373,0.283203,0.68457,-0.720703
1582297468685646,0.280273,0.692383,-0.716309
1582297468692225,0.28418,0.691895,-0.716797
1582297468715375,0.28418,0.681152,-0.725586
1582297468738105,0.278809,0.673828,-0.718262
1582297468752062,0.282227,0.681641,-0.716309
1582297468775991,0.280762,0.690918,-0.709473
1582297468798961,0.286133,0.688477,-0.720703
1582297468812891,0.280273,0.682129,-0.714355
1582297468835837,0.281738,0.686523,-0.718262
1582297468858178,0.283691,0.686035,-0.720215
1582297468872731,0.282715,0.681641,-0.724609
1582297468895731,0.277344,0.679688,-0.722168
1582297468917673,0.27832,0.675781,-0.720215
1582297468932572,0.285156,0.682617,-0.716797
1582297468955577,0.285645,0.688477,-0.71875
1582297468978508,0.276855,0.683105,-0.715332
1582297468992454,0.28125,0.686523,-0.715332
1582297469015399,0.28125,0.68457,-0.721191
1582297469038296,0.28418,0.680664,-0.726074
1582297469059289,0.284668,0.683594,-0.71582
1582297469075239,0.287598,0.69043,-0.719238
1582297469098131,0.282227,0.676758,-0.723633
1582297469119072,0.279785,0.67334,-0.719238
1582297469136026,0.278809,0.682129,-0.720215
1582297469157980,0.279785,0.682617,-0.714844
1582297469179258,0.287598,0.679688,-0.722656
1582297469195912,0.287109,0.675293,-0.726074
1582297469217817,0.286133,0.69043,-0.728027
1582297469239300,0.275879,0.684082,-0.723145
1582297469255713,0.28418,0.683105,-0.710449
1582297469277863,0.280273,0.672363,-0.725098
1582297469299752,0.287109,0.685547,-0.717773
1582297469315549,0.287109,0.677246,-0.716309
1582297469338487,0.285645,0.678711,-0.721191
1582297469359489,0.283203,0.673828,-0.722656
1582297469375436,0.286621,0.682617,-0.720215
1582297469398395,0.289551,0.682129,-0.723633
1582297469419291,0.285645,0.680176,-0.722656
1582297469435411,0.280762,0.677734,-0.717285
1582297469458173,0.279785,0.67627,-0.716797
1582297469480309,0.284668,0.681641,-0.720215
1582297469496064,0.28125,0.685059,-0.72168
1582297469525996,0.282715,0.685547,-0.724609
1582297469540943,0.280273,0.67041,-0.729492
1582297469555911,0.282227,0.669922,-0.716797
1582297469577847,0.283203,0.675781,-0.717285
1582297469600835,0.286133,0.69043,-0.713867
1582297469614754,0.283203,0.6875,-0.726563
1582297469637756,0.285645,0.682129,-0.720703
1582297469660628,0.280762,0.679199,-0.725586
1582297469674634,0.282715,0.682617,-0.722656
1582297469698523,0.280762,0.67334,-0.726074
1582297469720523,0.28125,0.678711,-0.723145
1582297469735423,0.282227,0.682129,-0.725586
1582297469758365,0.281738,0.680176,-0.722656
1582297469795700,0.284668,0.678711,-0.72168
1582297469798262,0.281738,0.67627,-0.719727
1582297469818293,0.283691,0.682129,-0.722168
1582297469840334,0.283203,0.684082,-0.713379
1582297469855102,0.280273,0.685547,-0.724121
1582297469878041,0.283691,0.674316,-0.727051
1582297469900985,0.286133,0.682617,-0.723145
1582297469915029,0.279297,0.682129,-0.721191
1582297469937883,0.275879,0.688965,-0.71875
1582297469960826,0.280762,0.678223,-0.725586
1582297469981929,0.28418,0.671875,-0.722656
1582297469997782,0.285645,0.680664,-0.731445
1582297470020668,0.283691,0.681641,-0.729004
1582297470042003,0.279297,0.680176,-0.723145
1582297470058559,0.285645,0.678223,-0.715332
1582297470080757,0.284668,0.681641,-0.717773
1582297470102267,0.283203,0.686035,-0.716309
1582297470118545,0.282227,0.682617,-0.716797
1582297470140350,0.282227,0.677246,-0.716309
1582297470162283,0.288086,0.676758,-0.720703
1582297470178306,0.28418,0.679688,-0.723633
1582297470200225,0.282227,0.682129,-0.730957
1582297470222132,0.28125,0.6875,-0.724121
1582297470246059,0.277832,0.682129,-0.71582
1582297470261018,0.280273,0.679199,-0.716797
1582297470282154,0.279297,0.680176,-0.719238
1582297470297933,0.285645,0.687988,-0.725586
1582297470320858,0.280273,0.690918,-0.723145
1582297470349267,0.287109,0.683594,-0.717773
1582297470357907,0.281738,0.674805,-0.725586
1582297470380747,0.285645,0.677246,-0.715332
1582297470401783,0.280762,0.685547,-0.717285
1582297470417608,0.279297,0.687988,-0.72168
1582297470440544,0.281738,0.681641,-0.722656
1582297470463476,0.285156,0.67334,-0.716309
1582297470478435,0.283691,0.682129,-0.724121
1582297470500669,0.279297,0.687988,-0.722656
1582297470523376,0.28125,0.689453,-0.722168
1582297470538276,0.277832,0.67627,-0.721191
1582297470560362,0.280273,0.677734,-0.717773
1582297470583218,0.282715,0.682129,-0.715332
1582297470597438,0.279785,0.687988,-0.710449
1582297470620058,0.279785,0.688965,-0.716797
1582297470643001,0.280273,0.67627,-0.727539
1582297470656962,0.279785,0.673828,-0.727539
1582297470687920,0.285156,0.680176,-0.726563
1582297470703021,0.28418,0.693848,-0.720215
1582297470717807,0.282715,0.683594,-0.71875
1582297470740773,0.28125,0.681152,-0.724609
1582297470762896,0.284668,0.682129,-0.720703
1582297470777641,0.283691,0.686035,-0.718262
1582297470800575,0.279785,0.679199,-0.728516
1582297470823515,0.28418,0.687988,-0.725586
1582297470837540,0.272461,0.678711,-0.723633
1582297470860421,0.280762,0.684082,-0.723145
1582297470883418,0.283203,0.684082,-0.718262
1582297470905299,0.281738,0.687012,-0.722168
1582297470920496,0.278809,0.682617,-0.708008
1582297470943507,0.285645,0.68457,-0.716797
1582297470948385,0.280762,0.67334,-0.715332
1582297470966859,0.283691,0.678223,-0.726074
1582297470986349,0.281738,0.692383,-0.71875
1582297471009021,0.282715,0.688477,-0.722656
1582297471026370,0.283691,0.683105,-0.729492
1582297471046120,0.276367,0.671875,-0.71875
1582297471068854,0.283691,0.683105,-0.718262
1582297471085023,0.282715,0.692383,-0.708008
1582297471106182,0.282227,0.69043,-0.723145
1582297471128750,0.280762,0.680176,-0.723633
1582297471160153,0.27832,0.674805,-0.720215
1582297471166604,0.28125,0.679688,-0.718262
1582297471188775,0.276367,0.675293,-0.720215
1582297471204630,0.28125,0.687012,-0.720703
1582297471226443,0.277344,0.685059,-0.714844
1582297471248581,0.280762,0.687012,-0.716309
1582297471265338,0.28418,0.679688,-0.727539
1582297471286549,0.285156,0.681641,-0.722168
1582297471308263,0.28125,0.674316,-0.721191
1582297471325169,0.283203,0.680176,-0.720703
1582297471346314,0.282227,0.677734,-0.722168
1582297471368709,0.284668,0.680664,-0.719238
1582297471386703,0.280762,0.685059,-0.724121
1582297471406143,0.279785,0.689941,-0.722168
1582297471431895,0.27832,0.681152,-0.718262
1582297471446872,0.285156,0.677734,-0.717773
1582297471465996,0.279785,0.679688,-0.723633
1582297471489122,0.28418,0.682129,-0.724121
1582297471506687,0.282715,0.687988,-0.716309
1582297471525841,0.280273,0.681641,-0.723633
1582297471548782,0.28418,0.682617,-0.72168
1582297471566524,0.278809,0.685059,-0.719727
1582297471586542,0.28125,0.679688,-0.713379
1582297471609469,0.273926,0.678223,-0.724121
1582297471626421,0.280273,0.67627,-0.717285
1582297471646509,0.278809,0.682129,-0.722656
1582297471668319,0.28125,0.682617,-0.722656
1582297471686538,0.27832,0.679688,-0.727051
1582297471706293,0.285645,0.672852,-0.717773
1582297471736073,0.281738,0.691406,-0.706543
1582297471746051,0.279785,0.692383,-0.702637
1582297471766430,0.283691,0.687988,-0.716309
1582297471790928,0.282715,0.677734,-0.713867
1582297471806421,0.281738,0.686523,-0.724609
1582297471826062,0.282227,0.68457,-0.718262
1582297471848966,0.288574,0.681152,-0.725586
1582297471866726,0.282715,0.680664,-0.725586
1582297471885729,0.276367,0.68457,-0.724609
1582297471908999,0.274902,0.684082,-0.720215
1582297471926562,0.280762,0.688477,-0.712402
1582297471946520,0.285645,0.69043,-0.714844
1582297471968447,0.282715,0.687988,-0.718262
1582297471986401,0.280273,0.678711,-0.716309
1582297472009396,0.27832,0.674805,-0.720215
1582297472028494,0.276855,0.682129,-0.715332
1582297472046240,0.281738,0.695801,-0.713867
1582297472067185,0.284668,0.692383,-0.714355
1582297472088316,0.280762,0.683105,-0.720703
1582297472106087,0.280762,0.679688,-0.720215
1582297472127233,0.281738,0.696289,-0.713379
1582297472149087,0.282715,0.694824,-0.715332
1582297472165988,0.282227,0.683594,-0.722656
1582297472187861,0.285645,0.677734,-0.728027
1582297472208983,0.283691,0.683594,-0.721191
1582297472226770,0.283203,0.681152,-0.715332
1582297472247752,0.284668,0.686523,-0.71875
1582297472268753,0.276855,0.68457,-0.717285
1582297472292613,0.277344,0.685059,-0.717285
1582297472307750,0.284668,0.685547,-0.717773
1582297472328484,0.28125,0.685059,-0.721191
1582297472346693,0.279785,0.682617,-0.71582
1582297472368377,0.279297,0.681152,-0.727051
1582297472388736,0.278809,0.685059,-0.71875
1582297472406287,0.278809,0.683594,-0.719238
1582297472429223,0.279297,0.682129,-0.716797
1582297472448581,0.276855,0.682129,-0.718262
1582297472466277,0.281738,0.680176,-0.716797
1582297472489061,0.278809,0.689941,-0.723145
1582297472509007,0.27832,0.686035,-0.723633
1582297472526878,0.283203,0.680176,-0.718262
1582297472549338,0.276855,0.682129,-0.713379
1582297472569842,0.280273,0.69043,-0.705566
1582297472585813,0.282227,0.686035,-0.712402
1582297472607888,0.279297,0.682129,-0.719238
1582297472629738,0.280273,0.679688,-0.71582
1582297472645708,0.275391,0.692383,-0.713867
1582297472667641,0.284668,0.687988,-0.722168
1582297472689743,0.282227,0.686035,-0.724121
1582297472705745,0.278809,0.684082,-0.722656
1582297472728464,0.277832,0.681152,-0.722656
1582297472749571,0.284668,0.685547,-0.708496
1582297472765377,0.275879,0.687012,-0.711914
1582297472788536,0.28125,0.687012,-0.711426
1582297472802221,0.279785,0.682617,-0.719238
1582297472825205,0.274902,0.684082,-0.722168
1582297472849110,0.278809,0.681152,-0.725098
1582297472869061,0.283691,0.688477,-0.711426
1582297472886013,0.276367,0.691406,-0.708984
1582297472907989,0.28125,0.6875,-0.717285
1582297472929878,0.279785,0.682129,-0.712891
1582297472945840,0.282715,0.688477,-0.711426
1582297472967905,0.282227,0.683594,-0.713867
1582297472989719,0.28125,0.686035,-0.719238
1582297473005737,0.283203,0.684082,-0.714844
1582297473028613,0.28125,0.688965,-0.720703
1582297473049727,0.279785,0.688965,-0.717285
1582297473065516,0.282715,0.68457,-0.710449
1582297473088751,0.277344,0.686523,-0.71875
1582297473109829,0.279785,0.689941,-0.716309
1582297473125356,0.280273,0.689941,-0.719727
1582297473148355,0.282715,0.684082,-0.713867
1582297473169596,0.277344,0.685059,-0.713867
1582297473185342,0.276855,0.688965,-0.716797
1582297473208194,0.281738,0.689453,-0.712891
1582297473229576,0.27832,0.686523,-0.716309
1582297473246036,0.27832,0.688477,-0.719238
1582297473268172,0.277832,0.6875,-0.726074
1582297473290110,0.279297,0.686035,-0.72168
1582297473305879,0.280762,0.689453,-0.711426
1582297473328125,0.277832,0.685547,-0.712402
1582297473350763,0.270508,0.68457,-0.716797
1582297473366115,0.278809,0.675293,-0.711914
1582297473388100,0.27832,0.670898,-0.715332
1582297473410596,0.276367,0.672363,-0.709961
1582297473424590,0.280273,0.691895,-0.706543
1582297473448510,0.286133,0.697266,-0.713867
1582297473470440,0.282715,0.711426,-0.722656
1582297473484397,0.282227,0.716309,-0.717285
1582297473508337,0.276367,0.697754,-0.70459
1582297473530275,0.278809,0.672852,-0.708984
1582297473545233,0.281738,0.65918,-0.713867
1582297473568168,0.27832,0.677246,-0.714355
1582297473590260,0.273438,0.696289,-0.714355
1582297473605127,0.276367,0.696289,-0.720215
1582297473628050,0.269043,0.687012,-0.721191
1582297473650954,0.260742,0.679199,-0.720703
1582297473664913,0.275879,0.690918,-0.719727
1582297473687896,0.279785,0.703125,-0.71582
1582297473710787,0.291504,0.710938,-0.720703
1582297473724751,0.280762,0.703125,-0.713379
1582297473747778,0.271973,0.694336,-0.715332
1582297473770691,0.272461,0.688477,-0.714355
1582297473791903,0.281738,0.690918,-0.708008
1582297473808525,0.282227,0.69043,-0.70166
1582297473830467,0.281738,0.674805,-0.702637
1582297473851415,0.270508,0.679199,-0.70752
1582297473868557,0.269531,0.696777,-0.704102
1582297473890316,0.269043,0.711914,-0.708496
1582297473912305,0.281738,0.698242,-0.71875
1582297473928211,0.288574,0.687988,-0.717285
1582297473957265,0.283203,0.682617,-0.718262
1582297473972088,0.275879,0.691895,-0.720215
1582297473988450,0.281738,0.703125,-0.710449
1582297474010995,0.276367,0.703125,-0.712402
1582297474032136,0.277344,0.696777,-0.70752
1582297474047886,0.274902,0.684082,-0.702637
1582297474070883,0.283691,0.691406,-0.700195
1582297474091823,0.277344,0.693359,-0.703125
1582297474108340,0.28125,0.683105,-0.708496
1582297474130922,0.279297,0.685059,-0.705078
1582297474151771,0.280273,0.695313,-0.702148
1582297474167571,0.275391,0.699707,-0.714844
1582297474190513,0.271484,0.70166,-0.721191
1582297474213506,0.278809,0.708496,-0.71875
1582297474234386,0.280762,0.706055,-0.709961
1582297474250345,0.278809,0.692383,-0.713379
1582297474273341,0.276855,0.685547,-0.69873
1582297474288485,0.277832,0.689941,-0.693848
1582297474310356,0.27832,0.700195,-0.70166
1582297474333124,0.281738,0.696777,-0.711914
1582297474348081,0.275879,0.683594,-0.71582
1582297474371021,0.276367,0.689453,-0.705566
1582297474392968,0.276855,0.698242,-0.702148
1582297474407104,0.277832,0.688965,-0.707031
1582297474430916,0.283203,0.680664,-0.711914
1582297474453031,0.286621,0.702637,-0.711914
1582297474467764,0.291504,0.713379,-0.709473
1582297474490708,0.273438,0.703613,-0.709961
1582297474512836,0.270508,0.699219,-0.711914
1582297474527656,0.271973,0.681152,-0.706055
1582297474550541,0.272949,0.680176,-0.709473
1582297474573490,0.280273,0.676758,-0.708008
1582297474587499,0.266602,0.681152,-0.717285
1582297474610382,0.270508,0.67334,-0.714844
1582297474633319,0.270996,0.682129,-0.710449
1582297474647286,0.274902,0.693848,-0.711426
1582297474670346,0.287598,0.700684,-0.715332
1582297474693202,0.289063,0.702637,-0.71582
1582297474714307,0.285645,0.713867,-0.69873
1582297474731058,0.274902,0.712891,-0.701172
1582297474753003,0.279785,0.70166,-0.702148
1582297474774084,0.280273,0.691895,-0.715332
1582297474791216,0.272949,0.689453,-0.717773
1582297474812837,0.276855,0.691406,-0.709473
1582297474833976,0.273926,0.681641,-0.722168
1582297474850744,0.278809,0.681152,-0.714355
1582297474872743,0.278809,0.680664,-0.710938
1582297474894620,0.274414,0.692383,-0.700684
1582297474910576,0.285156,0.700684,-0.700195
1582297474933526,0.281738,0.699707,-0.711914
1582297474954647,0.28125,0.698242,-0.708984
1582297474970420,0.266602,0.693359,-0.70459
1582297474993425,0.27002,0.676758,-0.725098
1582297475014527,0.282715,0.651855,-0.726074
1582297475030562,0.279297,0.65625,-0.717773
1582297475053203,0.279297,0.68457,-0.70752
1582297475074139,0.281738,0.699707,-0.710938
1582297475091107,0.283691,0.692383,-0.712891
1582297475113159,0.27832,0.692383,-0.711914
1582297475133979,0.273926,0.699219,-0.714355
1582297475150935,0.272949,0.70166,-0.708984
1582297475172880,0.276855,0.69873,-0.720215
1582297475195983,0.282227,0.689453,-0.731445
1582297475210999,0.277832,0.679199,-0.733398
1582297475232781,0.272949,0.684082,-0.723145
1582297475255792,0.280762,0.680664,-0.716309
1582297475270613,0.273438,0.680176,-0.717773
1582297475293561,0.273926,0.683594,-0.719238
1582297475315757,0.283691,0.695313,-0.716797
1582297475330455,0.282715,0.702148,-0.709473
1582297475353392,0.279297,0.691406,-0.71875
1582297475383361,0.27832,0.674316,-0.724609
1582297475390294,0.271973,0.670898,-0.717773
1582297475413520,0.277832,0.679688,-0.721191
1582297475435358,0.276367,0.687012,-0.719238
1582297475450144,0.283691,0.684082,-0.727051
1582297475473133,0.28125,0.677734,-0.726563
1582297475496018,0.28125,0.68457,-0.723145
1582297475510047,0.282715,0.689941,-0.714844
1582297475532926,0.280762,0.691895,-0.710449
1582297475555850,0.280762,0.693848,-0.706055
1582297475569816,0.280762,0.683105,-0.712402
1582297475593047,0.283203,0.679688,-0.721191
1582297475622732,0.283203,0.680176,-0.71582
1582297475629654,0.279297,0.685059,-0.724609
1582297475653589,0.279297,0.683105,-0.724609
1582297475675862,0.280273,0.675293,-0.724121
1582297475696948,0.279297,0.671387,-0.723633
1582297475713500,0.277344,0.676758,-0.723633
1582297475735372,0.282715,0.69043,-0.721191
1582297475756364,0.276855,0.693848,-0.715332
1582297475773274,0.277832,0.68457,-0.725098
1582297475796366,0.280273,0.674316,-0.724121
1582297475817155,0.280273,0.671387,-0.722656
1582297475833125,0.283691,0.672363,-0.716309
1582297475856047,0.275391,0.681152,-0.727539
1582297475877197,0.279785,0.689453,-0.715332
1582297475899140,0.283203,0.687988,-0.722168
1582297475915898,0.276855,0.68457,-0.71875
1582297475937257,0.280273,0.685547,-0.722168
1582297475952796,0.28418,0.6875,-0.717773
1582297475975730,0.283203,0.672363,-0.717285
1582297475989132,0.282227,0.681152,-0.719727
1582297476003793,0.28418,0.689453,-0.71875
1582297476018891,0.279785,0.683594,-0.720215
1582297476041556,0.277832,0.685547,-0.71875
1582297476063697,0.279785,0.681641,-0.717773
1582297476078947,0.270996,0.682129,-0.717773
1582297476101391,0.27832,0.685059,-0.719727
1582297476123388,0.28418,0.686035,-0.727051
1582297476138343,0.279785,0.681152,-0.727051
1582297476161432,0.276855,0.678711,-0.72168
1582297476183180,0.280273,0.69043,-0.717773
1582297476198132,0.282227,0.690918,-0.71875
1582297476221322,0.281738,0.680664,-0.714844
1582297476243056,0.274902,0.672852,-0.718262
1582297476257971,0.282715,0.673828,-0.714355
1582297476280917,0.27832,0.679199,-0.728516
1582297476303853,0.285156,0.683594,-0.724609
1582297476318816,0.279785,0.689453,-0.715332
1582297476340867,0.280273,0.689453,-0.720703
1582297476363694,0.279297,0.685547,-0.721191
1582297476378689,0.278809,0.683105,-0.717773
1582297476400593,0.280762,0.688477,-0.715332
1582297476418881,0.27832,0.692383,-0.722168
1582297476438491,0.276855,0.683594,-0.727539
1582297476461741,0.273438,0.680664,-0.720215
1582297476478382,0.277832,0.673828,-0.725586
1582297476498827,0.280762,0.676758,-0.726563
1582297476521665,0.280762,0.687988,-0.72168
1582297476539225,0.277832,0.688965,-0.713379
1582297476558430,0.276367,0.684082,-0.71582
1582297476581314,0.28125,0.677734,-0.723633
1582297476599066,0.281738,0.680176,-0.724609
1582297476619068,0.275879,0.681152,-0.716309
1582297476641290,0.27832,0.682617,-0.714355
1582297476658911,0.279785,0.681641,-0.722656
1582297476679043,0.276855,0.683594,-0.721191
1582297476700943,0.280762,0.685059,-0.71582
1582297476718746,0.28125,0.683105,-0.721191
1582297476739684,0.28125,0.685059,-0.729004
1582297476761053,0.274902,0.675781,-0.714844
1582297476778649,0.281738,0.675293,-0.71875
1582297476799533,0.280273,0.67627,-0.726563
1582297476821588,0.28418,0.686035,-0.728027
1582297476838681,0.277832,0.688477,-0.727051
1582297476860367,0.279297,0.677734,-0.730957
1582297476881454,0.280762,0.680664,-0.727539
1582297476899259,0.280762,0.685059,-0.719727
1582297476920200,0.276367,0.680664,-0.71582
1582297476941328,0.28125,0.672852,-0.722656
1582297476959104,0.28125,0.66748,-0.725586
1582297476981417,0.28125,0.676758,-0.727051
1582297477009057,0.27832,0.6875,-0.722656
1582297477018938,0.276855,0.6875,-0.733887
1582297477039884,0.277832,0.682617,-0.730957
1582297477063974,0.277344,0.678711,-0.717773
1582297477078832,0.28125,0.671875,-0.720703
1582297477101719,0.283203,0.681641,-0.721191
1582297477121716,0.28125,0.684082,-0.722168
1582297477138621,0.27832,0.689453,-0.729492
1582297477161647,0.277344,0.67334,-0.728027
1582297477181601,0.279297,0.665527,-0.73291
1582297477198918,0.286133,0.681641,-0.721191
1582297477221784,0.282227,0.690918,-0.717773
1582297477241348,0.27832,0.685059,-0.730469
1582297477259292,0.278809,0.678223,-0.719238
1582297477281337,0.283691,0.677246,-0.723633
1582297477301183,0.282227,0.683105,-0.723633
1582297477319204,0.280762,0.683594,-0.722168
1582297477349051,0.276855,0.681152,-0.724121
1582297477364079,0.275879,0.675293,-0.723633
1582297477378974,0.28125,0.674316,-0.727051
1582297477400917,0.282715,0.682617,-0.727539
1582297477421064,0.285156,0.682617,-0.722656
1582297477439299,0.277344,0.681152,-0.721191
1582297477461773,0.280273,0.681641,-0.72168
1582297477480899,0.27832,0.685059,-0.725098
1582297477498659,0.277344,0.674316,-0.727051
1582297477521878,0.274902,0.670898,-0.720703
1582297477541542,0.282227,0.682617,-0.725586
1582297477566484,0.285156,0.686035,-0.729004
1582297477581433,0.275391,0.679688,-0.731445
1582297477601445,0.274414,0.67334,-0.73291
1582297477618357,0.276367,0.683594,-0.720703
1582297477640275,0.283203,0.682617,-0.722656
1582297477662263,0.278809,0.676758,-0.73291
1582297477678224,0.282715,0.663086,-0.725586
1582297477700246,0.28125,0.681152,-0.723145
1582297477722106,0.280762,0.675781,-0.718262
1582297477738018,0.279785,0.686035,-0.731934
1582297477767931,0.27832,0.673828,-0.718262
1582297477781944,0.28418,0.680664,-0.725586
1582297477798015,0.27832,0.675293,-0.721191
1582297477820797,0.280273,0.679688,-0.72168
1582297477841943,0.27832,0.684082,-0.722656
1582297477858112,0.284668,0.687012,-0.728027
1582297477880695,0.274902,0.678223,-0.724609
1582297477901638,0.279785,0.680176,-0.727539
1582297477917590,0.27832,0.674316,-0.718262
1582297477940471,0.275391,0.677734,-0.721191
1582297477969579,0.28125,0.677734,-0.719238
1582297477978377,0.277832,0.678711,-0.725098
1582297478000309,0.276855,0.680664,-0.726074
1582297478023255,0.283691,0.681152,-0.724609
1582297478038209,0.281738,0.683594,-0.728027
1582297478060324,0.283203,0.681152,-0.71875
1582297478083089,0.279297,0.683594,-0.716797
1582297478098063,0.277832,0.679688,-0.717773
1582297478120987,0.277832,0.683105,-0.717285
1582297478142933,0.283203,0.686035,-0.725098
1582297478157891,0.277344,0.680664,-0.723633
1582297478180884,0.28125,0.67627,-0.71875
1582297478202831,0.281738,0.674316,-0.723633
1582297478217727,0.282227,0.689941,-0.719238
1582297478241012,0.279785,0.691406,-0.711914
1582297478262760,0.279297,0.682129,-0.721191
1582297478277630,0.276855,0.679199,-0.727051
1582297478300513,0.278809,0.678711,-0.713379
1582297478323463,0.277832,0.683594,-0.727051
1582297478337418,0.280273,0.685059,-0.71582
1582297478360352,0.280762,0.682617,-0.719727
1582297478383522,0.277832,0.679688,-0.721191
1582297478397496,0.275391,0.679199,-0.71875
1582297478420187,0.28125,0.686035,-0.719238
1582297478443380,0.282715,0.695801,-0.715332
1582297478457409,0.280273,0.681641,-0.720215
1582297478480210,0.277832,0.669922,-0.727539
1582297478502968,0.273926,0.680664,-0.717285
1582297478523964,0.279785,0.687988,-0.720215
1582297478540870,0.279785,0.680664,-0.724121
1582297478563154,0.276855,0.678711,-0.73291
1582297478584748,0.277344,0.682129,-0.718262
1582297478600707,0.277832,0.683594,-0.718262
1582297478622982,0.279785,0.683105,-0.721191
1582297478644591,0.277832,0.685547,-0.715332
1582297478660828,0.282227,0.692383,-0.717773
1582297478683492,0.278809,0.689453,-0.720215
1582297478704829,0.285645,0.680664,-0.725586
1582297478720392,0.275391,0.681641,-0.71875
1582297478743385,0.282715,0.682617,-0.719238
1582297478764497,0.280762,0.684082,-0.711426
1582297478780347,0.283203,0.682617,-0.717773
1582297478803170,0.279785,0.687012,-0.716309
1582297478824254,0.279785,0.692871,-0.719727
1582297478841064,0.276367,0.68457,-0.721191
1582297478863044,0.279297,0.680664,-0.726074
1582297478884012,0.282715,0.682129,-0.717285
1582297478900906,0.280273,0.683105,-0.712402
1582297478922848,0.27832,0.687988,-0.719238
1582297478951765,0.28125,0.68457,-0.71582
1582297478960806,0.274414,0.688965,-0.711426
1582297478983131,0.279785,0.688965,-0.722656
1582297479005677,0.276855,0.687988,-0.722168
1582297479020639,0.279785,0.67627,-0.723145
1582297479043527,0.280273,0.685547,-0.727539
1582297479065461,0.280762,0.684082,-0.722168
1582297479080428,0.280762,0.687012,-0.725586
1582297479103359,0.277832,0.680664,-0.717773
1582297479125381,0.275391,0.681641,-0.717773
1582297479140260,0.279297,0.687012,-0.71875
1582297479163262,0.276367,0.683594,-0.714355
1582297479185194,0.278809,0.675781,-0.722168
1582297479200105,0.278809,0.678223,-0.719727
1582297479229215,0.277344,0.687012,-0.726074
1582297479245981,0.27832,0.687988,-0.727539
1582297479259983,0.283691,0.687012,-0.722168
1582297479282888,0.283203,0.687988,-0.715332
1582297479305830,0.283691,0.686523,-0.703125
1582297479319786,0.280273,0.680664,-0.717285
1582297479342873,0.28125,0.675293,-0.722168
1582297479365715,0.28125,0.677734,-0.714844
1582297479379629,0.28125,0.678223,-0.732422
1582297479403555,0.281738,0.686523,-0.731445
1582297479425542,0.276855,0.685059,-0.724121
1582297479439550,0.283203,0.677734,-0.716309
1582297479463457,0.277832,0.67627,-0.718262
1582297479485336,0.279785,0.683594,-0.716797
1582297479508341,0.277832,0.6875,-0.710449
1582297479523236,0.28418,0.685059,-0.728027
1582297479545341,0.27832,0.679199,-0.727051
1582297479567124,0.280762,0.677734,-0.719238
1582297479583249,0.279297,0.678711,-0.722168
1582297479606016,0.281738,0.675781,-0.719238
1582297479627179,0.277832,0.678711,-0.729004
1582297479643236,0.280762,0.675293,-0.727539
1582297479665855,0.287598,0.680664,-0.724609
1582297479686942,0.277832,0.680664,-0.725098
1582297479702816,0.274902,0.679199,-0.721191
1582297479725753,0.276855,0.678711,-0.716797
1582297479747163,0.276855,0.670898,-0.718262
1582297479763592,0.285645,0.679199,-0.728027
1582297479785538,0.281738,0.679199,-0.727051
1582297479806533,0.282227,0.679688,-0.724121
1582297479823446,0.28125,0.678711,-0.718262
1582297479845627,0.277344,0.67627,-0.716309
1582297479866317,0.280762,0.673828,-0.721191
1582297479883279,0.283203,0.674316,-0.733398
1582297479905276,0.282227,0.680664,-0.720703
1582297479928211,0.283203,0.683105,-0.721191
1582297479943443,0.280762,0.678223,-0.725098
1582297479965378,0.279785,0.677734,-0.726074
1582297479987997,0.278809,0.67627,-0.71875
1582297480002959,0.282715,0.678711,-0.722656
1582297480025900,0.274414,0.677734,-0.722168
1582297480048373,0.279785,0.683105,-0.725586
1582297480062816,0.28418,0.678223,-0.726563
1582297480085736,0.285645,0.675781,-0.731445
1582297480108099,0.284668,0.678711,-0.720703
1582297480122634,0.286133,0.692383,-0.722168
1582297480145627,0.281738,0.681152,-0.720215
1582297480167724,0.28418,0.671387,-0.718262
1582297480182483,0.281738,0.674316,-0.721191
1582297480205858,0.28418,0.675293,-0.722168
1582297480235390,0.283203,0.676758,-0.723633
1582297480242313,0.282227,0.680176,-0.734863
1582297480265250,0.289551,0.691895,-0.729492
1582297480288236,0.281738,0.693848,-0.71582
1582297480302150,0.287598,0.681152,-0.71875
1582297480325291,0.279785,0.672852,-0.723633
1582297480348077,0.287109,0.680664,-0.71582
1582297480361997,0.291016,0.688477,-0.720215
1582297480385928,0.29248,0.675781,-0.724121
1582297480407868,0.290527,0.676758,-0.719238
1582297480429814,0.291504,0.679199,-0.726074
1582297480445832,0.296875,0.688965,-0.71875
1582297480467880,0.290039,0.6875,-0.712891
1582297480488882,0.291992,0.690918,-0.703613
1582297480505618,0.291016,0.680664,-0.710938
1582297480528545,0.290039,0.67334,-0.712891
1582297480549553,0.287109,0.679688,-0.724609
