timestamp,emg1,emg2,emg3,emg4,emg5,emg6,emg7,emg8
1582297428262386,-2,6,-26,-3,-1,-1,-7,-27
1582297428262386,10,-15,32,2,0,0,3,17
1582297428264419,-3,23,5,3,0,2,2,-6
1582297428264419,3,-12,-7,-1,-1,-1,-4,-45
1582297428264419,-2,2,1,0,-2,-1,3,51
1582297428264419,-22,-4,-17,-2,0,0,-7,-72
1582297428265920,16,-5,-1,-1,-1,-3,-3,2
1582297428265920,-5,-1,4,-2,1,1,3,11
1582297428268253,24,3,3,1,1,0,8,12
1582297428268253,-17,-2,-6,-1,1,0,-5,-44
1582297428281337,13,-8,3,-3,-2,-3,-19,20
1582297428281337,3,9,-6,-1,0,1,8,-4
1582297428292911,-21,-7,6,0,2,2,3,-43
1582297428292911,33,12,-13,-28,-7,-2,-9,32
1582297428296330,3,-11,-33,-26,-8,-8,-1,2
1582297428296330,-32,6,47,60,14,7,3,-7
1582297428311433,-29,-9,6,18,3,2,7,17
1582297428311433,39,-3,3,16,2,-1,-1,10
1582297428328213,-15,3,-18,-26,-6,-1,-1,67
1582297428328213,4,-2,-15,-21,-3,-7,-15,22
1582297428336189,-33,3,7,-1,-11,-2,-7,-22
1582297428336189,18,2,-5,-8,0,2,17,36
1582297428375091,26,15,2,4,1,3,6,0
1582297428375091,4,7,2,-1,2,0,-9,-28
1582297428376083,-26,0,1,1,-1,-1,-2,-31
1582297428376083,5,1,3,2,-1,1,1,-13
1582297428379125,-13,-7,-1,-2,-2,0,-10,-10
1582297428379125,-8,-3,-3,-2,-2,-2,-9,-35
1582297428380072,18,3,-1,0,-2,-1,4,10
1582297428380072,-7,-1,0,-3,1,0,1,2
1582297428387875,-5,-2,-2,-1,1,0,8,9
1582297428387875,2,-1,-1,-3,-3,0,3,11
1582297428394040,-2,-3,-5,-15,-3,-2,-4,-1
1582297428394040,2,2,2,-2,0,1,0,2
1582297428418027,0,-2,2,17,2,0,0,-6
1582297428418027,-4,-2,4,-1,2,0,2,-9
1582297428419413,4,-2,-1,0,1,-2,-2,18
1582297428419413,-2,-1,-7,-12,0,0,-2,-15
1582297428424960,9,5,1,-4,-1,2,21,58
1582297428424960,-18,-8,-4,-3,-5,-5,-14,-43
1582297428449124,1,-3,-2,-3,-2,0,-3,7
1582297428449124,-1,-4,-2,7,-1,-2,-12,-1
1582297428450419,-2,0,1,-2,1,-2,-15,6
1582297428450419,3,3,-2,1,2,2,-2,24
1582297428460904,1,1,-1,2,0,0,-4,-2
1582297428460904,3,6,4,5,-2,-7,-4,4
1582297428469842,-4,-2,0,-4,-2,-1,0,-25
1582297428469842,-2,-2,-1,-4,-1,2,11,14
1582297428485283,12,-1,-1,3,-1,0,-1,8
1582297428485283,-7,-5,-1,0,-1,2,4,-12
1582297428486787,-16,-2,-3,-5,-3,-1,-4,-26
1582297428486787,4,0,0,3,1,-1,0,11
1582297428507913,0,-2,-1,2,0,-1,1,11
1582297428507913,3,-1,-1,0,-1,-1,1,9
1582297428509323,-4,-4,-4,-6,-2,-3,-4,-13
1582297428509323,4,1,-1,0,-2,-1,-2,13
1582297428521141,-5,-2,2,2,1,-2,1,-13
1582297428521141,1,1,0,-2,-2,-1,1,2
1582297428530672,-3,-2,-4,-2,-1,-3,-5,-13
1582297428530672,1,-4,-3,-1,-1,-2,3,8
1582297428545690,-2,1,-2,1,0,0,3,-7
1582297428545690,-1,0,0,-2,-2,-1,-4,0
1582297428546638,0,-3,0,0,-3,-1,-3,3
1582297428546638,1,-1,1,1,-3,-2,0,6
1582297428567790,-1,0,0,1,0,-1,-1,-8
1582297428567790,-3,-4,-2,-1,-1,-1,-1,-1
1582297428569572,1,0,0,-2,-1,0,-3,-2
1582297428569572,1,1,0,0,0,-1,2,1
1582297428590519,-3,-1,-1,-1,-2,-1,-3,-8
1582297428590519,0,-1,-1,-1,-2,-2,-1,3
1582297428591515,2,-2,0,-1,-1,-1,-5,0
1582297428591515,1,0,0,-1,-2,-1,0,0
1582297428604797,-1,0,-1,-1,-1,-1,0,-1
1582297428604797,1,-1,-3,-1,-1,-2,3,0
1582297428611527,0,-1,-2,-1,-1,0,-2,-1
1582297428611527,0,1,-4,0,-1,0,1,1
1582297428627691,-2,3,2,0,-1,1,1,-3
1582297428627691,0,-3,-1,-1,-2,0,0,0
1582297428629407,0,-1,0,-2,-2,-3,-2,-4
1582297428629407,1,1,1,-1,0,-3,2,0
1582297428650404,0,-2,1,0,-2,-3,0,0
1582297428650404,-3,0,-1,0,0,-1,-1,-1
1582297428651348,2,0,-1,-1,-3,-2,0,1
1582297428651348,-1,-3,-2,-1,-3,1,-2,-1
1582297428664616,-1,-1,-2,0,-2,-2,-1,-1
1582297428664616,-2,-2,-1,-2,0,0,0,0
1582297428671533,0,-2,-3,-1,0,-2,-1,0
1582297428671533,0,-1,-3,-1,-2,-1,-3,1
1582297428687314,-1,-4,-4,-3,-1,-1,-1,-2
1582297428687314,1,9,4,-2,-2,-2,0,-2
1582297428695431,0,2,-2,0,1,-1,1,-2
1582297428695431,0,-1,2,1,-2,0,-2,2
1582297428710197,-3,-2,0,0,1,0,0,2
1582297428710197,-1,-3,-4,0,1,-1,-2,-2
1582297428711553,-1,-1,0,-2,-2,-1,-1,-1
1582297428711553,-2,-1,-1,-2,0,-1,-1,-2
1582297428724628,-1,-2,0,-2,-1,0,-2,-3
1582297428724628,1,-1,-2,-1,-1,0,0,0
1582297428731143,-1,-1,-1,1,0,-2,-2,-1
1582297428731143,1,0,-1,1,0,-1,-1,-1
1582297428749093,0,-2,0,-2,-1,0,0,-1
1582297428749093,-1,-1,-3,-1,-1,0,2,-1
1582297428752082,-1,1,0,0,-1,-3,-1,-1
1582297428752082,-2,-1,-2,-1,-2,-1,1,3
1582297428754412,-2,-1,0,0,-1,-3,-2,-1
1582297428754412,-1,-1,-1,-3,-3,-1,-1,0
1582297428769088,-2,-1,-1,0,0,1,0,-2
1582297428769088,-1,-1,0,-1,-1,0,-1,-1
1582297428776262,1,2,-1,1,-1,-1,-2,-1
1582297428776262,-1,-1,0,1,0,-1,-2,2
1582297428784998,-2,-1,-1,-1,1,-2,-1,1
1582297428784998,-1,3,-1,-2,0,0,-2,-2
1582297428799010,-1,1,-2,0,0,-1,0,-1
1582297428799010,0,2,1,0,2,0,-2,-3
1582297428807998,1,-1,0,-1,0,-1,0,0
1582297428807998,3,3,-1,-1,0,0,0,1
1582297428813981,1,2,0,0,0,-1,0,-1
1582297428813981,1,-1,-1,0,0,-1,-4,2
1582297428828938,1,0,-2,-3,-1,-1,0,-2
1582297428828938,-3,-6,-2,-2,0,0,-2,0
1582297428835854,-1,-1,0,0,1,1,-2,1
1582297428835854,2,2,0,0,0,0,0,0
1582297428844830,1,1,-1,-2,0,-2,-1,0
1582297428844830,1,-2,-1,-1,-1,-1,0,1
1582297428858846,2,1,0,-2,-1,-2,-1,-1
1582297428858846,-1,-2,0,-1,0,0,-1,0
1582297428867832,0,0,-1,-1,-1,1,-2,0
1582297428867832,0,1,0,0,-2,-3,-1,-3
1582297428873950,-1,2,0,-1,0,-2,-1,-2
1582297428873950,0,0,-3,-1,-2,-3,-4,-2
1582297428888860,-2,0,-3,-1,-2,-2,-5,-2
1582297428888860,-2,-1,-3,-1,-2,-2,-3,-3
1582297428896805,-3,-3,-4,-1,-2,-3,-3,-1
1582297428896805,-2,-2,-4,-1,0,-2,-1,-2
1582297428904866,-4,-4,0,-1,-3,-2,0,-1
1582297428904866,-2,-2,0,0,-2,0,1,-1
1582297428918844,-1,-1,-2,0,-1,-1,-2,-2
1582297428918844,1,4,-1,-1,-2,0,0,-1
1582297428927618,-1,-2,-3,0,0,1,1,-2
1582297428927618,-3,-3,-1,-2,-1,-1,-1,-1
1582297428933787,-1,-1,-2,-1,-1,1,-2,-1
1582297428933787,-1,-3,0,-1,-1,-1,0,-1
1582297428948609,-1,2,-1,-1,-1,-1,-1,0
1582297428948609,0,3,0,0,-1,0,-2,0
1582297428956583,-1,2,-1,-2,-2,-1,-1,-1
1582297428956583,-1,0,-1,-1,-2,-3,0,-2
1582297428965559,-1,-1,-1,1,-2,0,-1,0
1582297428965559,0,-1,-2,-1,0,-1,-3,1
1582297428979542,-1,-1,1,-2,-2,-1,2,-1
1582297428979542,-1,-2,0,-1,1,0,1,-1
1582297428987489,-1,-2,-1,-2,-1,-1,1,-2
1582297428987489,0,1,0,1,-1,0,0,2
1582297428993726,-1,-1,-1,0,-1,0,-1,-3
1582297428993726,-3,-2,0,0,-3,-2,0,-1
1582297429008799,0,-1,-1,-1,0,-1,-3,-2
1582297429008799,-1,-3,-1,-1,1,0,-1,-2
1582297429016743,1,0,0,-1,-1,0,0,-2
1582297429016743,-1,0,-1,-3,-2,1,-2,1
1582297429031386,1,0,-1,-1,-2,-1,-1,-1
1582297429031386,-1,1,-1,-1,-1,-3,0,0
1582297429038378,-1,-2,-2,1,0,-1,-1,1
1582297429038378,0,-1,0,-2,0,-2,-1,-1
1582297429047492,-2,-2,0,0,-1,-1,-1,2
1582297429047492,-2,-2,-2,-4,-1,-1,-2,-3
1582297429054305,0,-2,-2,-1,0,0,-1,0
1582297429054305,-2,0,-2,-1,1,-1,0,0
1582297429069232,1,-1,0,-2,-1,-1,-1,1
1582297429069232,1,0,1,-1,0,0,0,0
1582297429076214,-1,0,-1,0,-1,-1,-2,0
1582297429076214,-2,-1,-1,0,0,0,-3,-2
1582297429093167,-1,-1,0,-2,0,-1,0,0
1582297429093167,-1,-1,-2,1,-1,-2,1,1
1582297429099151,-1,-3,0,-3,-1,0,-1,2
1582297429099151,1,1,-1,-1,1,-1,-1,0
1582297429108532,-1,1,-1,0,-1,0,-1,-1
1582297429108532,-1,-1,0,-3,-1,0,-1,-1
1582297429114109,0,0,0,-3,-3,-1,1,0
1582297429114109,0,-2,0,-2,-1,0,-1,-3
1582297429129070,1,-2,-1,-3,0,-2,-2,1
1582297429129070,0,-1,0,0,0,0,1,-3
1582297429138053,-1,1,-2,-1,0,-2,0,0
1582297429138053,-3,-4,-3,-1,-3,0,-1,1
1582297429145483,0,3,-1,1,-1,0,-1,0
1582297429145483,-3,0,-1,1,0,-1,-4,-1
1582297429158998,1,-1,0,-2,-1,0,-1,-2
1582297429158998,-1,-2,-2,-1,-1,0,-2,1
1582297429168033,-2,-2,-1,-2,-2,0,0,-1
1582297429168033,0,-3,-2,-2,0,-1,0,1
1582297429174147,-2,-1,-1,-1,0,-1,-1,-1
1582297429174147,0,0,-1,-1,-1,-3,-3,-2
1582297429189267,-2,0,-2,0,-1,1,-2,-1
1582297429189267,-1,-1,0,0,-1,-1,-1,0
1582297429196124,0,-2,-1,1,0,0,1,-2
1582297429196124,-3,1,1,0,0,0,-3,-1
1582297429204979,0,-1,-2,0,0,-3,-2,-1
1582297429204979,-1,-1,0,-2,-2,-2,0,-2
1582297429219010,-1,-1,0,-1,-2,-1,-1,-1
1582297429219010,-2,-1,-1,-1,0,0,-1,-1
1582297429227831,0,-3,-1,-1,-1,-2,0,-1
1582297429227831,-2,2,0,-1,1,-1,-2,-3
1582297429233795,1,3,-1,0,0,0,0,0
1582297429233795,2,0,1,1,0,-1,1,0
1582297429249235,-1,0,-1,-2,-1,0,-1,0
1582297429249235,0,-4,-2,-2,-2,-2,1,-2
1582297429256730,-1,-1,-2,-2,-1,-2,-4,-2
1582297429256730,0,-1,-1,-1,0,-1,0,-2
1582297429265706,-1,1,0,-1,1,2,-2,-2
1582297429265706,0,0,0,1,0,-1,-2,0
1582297429279722,0,0,0,-1,-1,-2,-2,1
1582297429279722,0,0,0,-1,-1,-3,1,1
1582297429287646,0,0,-2,-2,-1,-3,0,-2
1582297429287646,-1,1,-3,-2,0,1,1,0
1582297429293636,1,-2,1,-2,-2,0,0,-4
1582297429293636,0,-1,0,-1,0,0,-1,-1
1582297429308596,-1,-3,0,0,-3,-1,-1,-1
1582297429308596,-1,0,-1,-2,-1,-1,-2,-3
1582297429316617,-2,1,-3,0,0,-1,1,-2
1582297429316617,-2,-2,-1,0,-1,-1,-2,-1
1582297429325560,1,-2,0,0,0,-1,-2,0
1582297429325560,1,0,-1,1,-2,-2,-1,1
1582297429338708,-2,-1,1,-1,-1,-1,0,1
1582297429338708,0,0,-2,-3,-1,-1,-1,-3
1582297429347493,-3,1,0,-2,-1,0,-1,-2
1582297429347493,0,-1,1,-1,1,-1,0,-2
1582297429361497,-1,-2,-1,-3,-1,-1,-1,0
1582297429361497,-3,-1,-1,0,-1,-1,-1,0
1582297429368481,-1,0,-1,0,-1,0,-1,0
1582297429368481,-1,-2,-2,0,-2,-1,2,-2
1582297429385440,1,-1,-2,-1,0,0,0,-2
1582297429385440,2,-1,0,-1,-2,-1,-2,0
1582297429386659,0,-1,-2,-1,-1,1,0,2
1582297429386659,-2,-3,-2,-1,-2,0,-1,0
1582297429398651,-1,-1,0,-1,0,-1,0,-2
1582297429398651,-2,-1,-3,0,-1,-1,-1,-1
1582297429407731,-1,0,0,0,0,0,0,-2
1582297429407731,-1,1,-1,-2,-1,-1,-3,-1
1582297429422376,-3,0,-2,-1,-1,0,-2,0
1582297429422376,0,1,-1,-2,-1,-1,3,0
1582297429428296,0,0,0,-2,0,-3,-1,-1
1582297429428296,1,-1,-2,-3,0,-2,0,0
1582297429445481,-2,-5,0,2,-3,0,-1,0
1582297429445481,-2,-5,0,-1,-1,0,-1,-1
1582297429446221,-1,0,-1,-1,0,-2,0,0
1582297429446221,0,0,-2,-2,-1,1,0,1
1582297429459188,-2,0,0,0,-2,-2,-2,0
1582297429459188,-2,-2,1,-1,0,-1,-1,-1
1582297429468190,-1,-1,-1,-1,-1,-1,0,0
1582297429468190,-1,-2,0,0,0,-1,-1,1
1582297429482327,-2,0,-2,-1,0,0,-2,-1
1582297429482327,-1,-2,0,-1,-1,-2,-1,-1
1582297429489249,-2,-1,-3,-1,0,-2,0,1
1582297429489249,-2,-2,-3,-2,0,0,-2,-2
1582297429505266,1,1,0,-2,0,-2,-1,1
1582297429505266,-1,0,0,-1,-2,-2,0,-1
1582297429507060,-1,-2,0,0,-1,-1,-2,-1
1582297429507060,-1,0,-1,2,0,-1,-1,0
1582297429519470,-1,-3,-2,-3,0,-3,0,2
1582297429519470,0,-2,0,-3,-1,0,-1,-2
1582297429535267,0,-2,-1,-1,-1,-2,-1,-4
1582297429535267,1,-1,0,0,-1,-1,0,0
1582297429541970,0,-2,0,0,0,-1,-1,-1
1582297429541970,0,-2,0,-2,0,-1,-2,3
1582297429548994,-1,-3,-2,-1,-1,0,0,0
1582297429548994,-2,0,2,-3,-1,-1,-2,-2
1582297429565115,-1,0,-1,-2,-2,-1,0,-3
1582297429565115,0,-2,0,-1,0,-1,0,-1
1582297429566902,2,-1,-1,1,-2,0,0,-2
1582297429566902,0,-2,-1,-1,0,-2,-1,-1
1582297429578980,-3,0,0,-1,-1,-1,-2,1
1582297429578980,0,1,-2,0,0,1,-1,-2
1582297429587844,-1,-2,-1,-3,-2,-1,-1,1
1582297429587844,-3,-1,-2,-1,0,-1,-1,2
1582297429602328,-1,-1,1,-1,-2,1,-1,-2
1582297429602328,0,0,-2,1,-2,-1,0,0
1582297429608988,1,0,-1,-1,0,-1,0,0
1582297429608988,-1,-2,-2,0,-2,-2,-1,0
1582297429624945,0,1,-1,0,0,-2,0,0
1582297429624945,-1,-2,-2,-1,-1,-1,0,-1
1582297429626740,-1,-2,-1,-1,-1,-1,-2,0
1582297429626740,1,1,-1,-1,-2,1,-2,-3
1582297429654669,-4,0,-1,-1,1,-1,-1,0
1582297429654669,6,3,2,1,-1,0,-1,-1
1582297429656657,-2,1,-1,-2,0,-1,-1,-2
1582297429656657,0,-2,-2,-1,0,-3,2,2
1582297429669631,0,-22,-11,-7,-5,-2,-7,-10
1582297429669631,-31,30,4,1,1,2,0,-27
1582297429671632,-5,-8,6,4,0,0,-1,4
1582297429671632,4,22,12,3,4,1,-1,-4
1582297429692797,22,-4,-8,-1,-2,-2,2,16
1582297429692797,3,-2,0,-3,-2,-3,1,5
1582297429693562,5,3,4,2,0,0,-2,-2
1582297429693562,-43,15,5,2,-2,1,8,6
1582297429714644,-10,-32,-2,0,0,-1,-1,10
1582297429714644,1,22,-13,-4,11,-2,3,21
1582297429716499,-21,-30,-34,-12,-12,-11,-22,-58
1582297429716499,34,34,30,6,7,6,0,-13
1582297429729570,-13,2,5,0,-12,1,44,56
1582297429729570,-15,10,9,3,-4,1,-21,-34
1582297429736444,35,-6,-5,-2,0,-9,7,77
1582297429736444,2,-9,-12,-5,-2,-5,-29,-24
1582297429752532,-15,2,0,-1,2,9,-5,-10
1582297429752532,-3,-17,-6,0,4,5,3,-3
1582297429754399,-48,2,-2,-9,-14,-20,-6,-25
1582297429754399,66,-17,-17,-6,-11,-3,3,27
1582297429775341,-9,18,5,0,2,0,-4,-19
1582297429775341,7,-23,3,4,1,-2,2,14
1582297429776344,-3,19,14,7,9,12,2,-4
1582297429776344,-6,-12,-9,-4,-3,-1,9,8
1582297429788306,11,8,-2,-1,-1,-6,-13,-16
1582297429788306,3,-14,-9,-2,-1,1,8,2
1582297429805353,4,12,6,2,1,8,0,-4
1582297429805353,-12,2,4,1,2,-3,7,-8
1582297429812361,-18,-7,-6,0,1,-7,0,-6
1582297429812361,15,-4,-4,-5,-9,-10,-22,2
1582297429814237,9,-2,1,1,1,5,5,10
1582297429814237,-21,-16,-11,-4,-2,-1,0,-10
1582297429835181,-2,4,3,-1,-1,3,-4,-10
1582297429835181,2,-1,2,2,-3,-4,9,8
1582297429837176,-11,-13,-5,-2,-2,-9,-4,-7
1582297429837176,-11,-2,-4,-2,4,7,2,-4
1582297429848264,3,1,-5,-2,1,8,2,-12
1582297429848264,9,0,14,1,-3,-3,-5,-2
1582297429857122,19,14,0,2,3,-2,1,1
1582297429857122,-18,-32,-16,-5,-2,7,0,-9
1582297429872980,18,24,12,4,0,-14,-13,9
1582297429872980,-11,-13,-14,-5,-4,3,0,0
1582297429874077,4,3,5,3,1,-1,0,-5
1582297429874077,-9,-9,1,-1,-1,-7,-4,12
1582297429895025,7,-9,-4,-2,2,2,1,-1
1582297429895025,3,13,1,-1,-3,-5,1,-2
1582297429896147,-13,-11,-4,-6,-3,11,4,-8
1582297429896147,2,5,-4,-1,-2,-1,-4,-6
1582297429909001,1,3,4,2,1,3,-2,-1
1582297429909001,-4,-5,-1,-2,-1,-4,-1,1
1582297429917964,4,0,-2,-5,-2,-2,2,1
1582297429917964,-8,-2,-2,-3,-3,-7,-7,1
1582297429932973,4,-4,-6,-4,0,6,2,-1
1582297429932973,-9,-3,-1,3,0,0,-1,-7
1582297429934357,7,4,2,2,0,1,3,0
1582297429934357,-3,2,2,-5,-1,-4,-2,1
1582297429954965,-2,-4,-2,5,0,-6,-2,-6
1582297429954965,-2,-8,-3,-5,0,0,0,0
1582297429956859,13,9,3,1,0,2,-1,7
1582297429956859,-8,-7,-14,-1,-3,-6,-1,3
1582297429969007,-7,2,23,6,5,1,1,-1
1582297429969007,9,0,1,-4,-2,5,2,2
1582297429977805,-3,-1,-3,3,1,-4,-1,0
1582297429977805,2,2,-1,9,-7,-2,3,1
1582297429992768,3,-6,-9,-1,-3,1,-3,-2
1582297429992768,-4,-5,-8,-23,3,0,-1,2
1582297429993755,-10,-6,0,-6,-1,0,-4,3
1582297429993755,7,3,-3,-5,0,2,7,1
1582297430014838,-13,-5,-3,9,-9,0,2,-15
1582297430014838,7,4,7,10,2,-4,-6,5
1582297430016819,-2,-2,-8,-4,-1,0,-3,-6
1582297430016819,1,-4,0,0,2,0,1,-1
1582297430028920,-3,4,-1,-2,-1,-3,-1,8
1582297430028920,-4,-2,-8,-9,-6,1,5,4
1582297430037645,0,0,6,6,3,2,2,-4
1582297430037645,7,3,8,5,-1,-4,-4,-1
1582297430052646,-2,0,-2,-6,2,4,0,-3
1582297430052646,1,-1,-4,0,-5,-6,2,-3
1582297430054602,0,-2,-5,-1,1,-1,2,3
1582297430054602,-5,-1,5,-1,-3,-2,-2,-1
1582297430082930,6,2,-5,-5,2,-4,-3,3
1582297430082930,3,-2,-3,4,-3,1,-4,2
1582297430084517,-8,0,2,-4,-2,2,3,-6
1582297430084517,-5,0,1,-1,1,-6,-6,0
1582297430089032,3,-3,-7,-5,-4,-3,-6,1
1582297430089032,-2,0,5,4,1,1,-1,-6
1582297430097772,3,-2,-2,-1,-2,-5,0,3
1582297430097772,-5,-2,-2,0,1,2,0,-6
1582297430112601,-3,-1,-7,-5,0,6,-2,-3
1582297430112601,-7,-4,0,0,-6,-13,-7,-3
1582297430114442,3,2,-3,1,5,11,4,0
1582297430114442,5,0,-8,-8,-2,-2,1,1
1582297430135379,3,4,16,8,-5,-8,-9,-8
1582297430135379,0,2,0,3,2,5,6,-1
1582297430136809,-2,-7,-5,-7,-6,-10,-5,0
1582297430136809,-3,1,0,3,3,3,-2,-4
1582297430148342,-3,-4,-7,-5,-1,-2,3,3
1582297430148342,0,1,-2,1,-1,0,-2,0
1582297430157317,0,1,2,4,0,-5,-8,2
1582297430157317,3,-1,1,-2,0,2,2,5
1582297430172333,-2,0,-3,-4,-3,-4,-1,-1
1582297430172333,2,3,3,1,0,-1,-6,-5
1582297430174289,-4,-5,-5,-4,-2,0,-4,-5
1582297430174289,-1,0,1,-1,-2,1,0,2
1582297430195223,2,3,-1,0,0,0,4,2
1582297430195223,-16,-7,-2,2,0,2,-2,-1
1582297430197095,16,5,2,0,-1,-3,-7,2
1582297430197095,-2,-1,1,-1,-2,-3,-4,-2
1582297430208187,-20,-7,-5,-3,-2,1,2,-6
1582297430208187,25,-2,-4,-2,-2,-1,0,4
1582297430217189,-4,6,1,1,0,-1,-1,1
1582297430217189,3,-2,2,2,2,0,-5,1
1582297430232120,1,1,-4,-4,-2,-4,-2,6
1582297430232120,-15,-7,0,-1,-2,0,-4,-6
1582297430234111,-3,-6,-4,-4,-3,-2,-2,-5
1582297430234111,3,-1,-2,1,-1,-1,1,0
1582297430255059,-4,-1,-4,-3,1,6,-3,-8
1582297430255059,-2,0,-1,-1,-2,-4,2,3
1582297430256184,11,0,0,0,-1,0,0,3
1582297430256184,-9,2,-1,-3,-1,2,3,-7
1582297430269022,3,-1,5,4,0,-14,-19,3
1582297430269022,17,8,0,-1,-1,3,4,3
1582297430278066,-9,6,2,1,-1,2,0,-5
1582297430278066,-4,-4,-1,1,1,-3,-3,-2
1582297430294100,6,-5,-8,-7,-4,3,9,0
1582297430294100,-2,4,0,2,1,2,1,-1
1582297430294952,-27,-8,0,0,1,1,2,-2
1582297430294952,33,8,6,1,-1,2,-1,3
1582297430314900,-1,-1,0,-3,-1,-2,2,-2
1582297430314900,-4,0,-2,-3,0,1,2,0
1582297430316889,-4,-6,-4,-1,-2,-2,2,4
1582297430316889,-12,-3,-2,-1,0,2,1,-5
1582297430328861,8,5,-1,-3,-1,3,5,1
1582297430328861,1,2,6,3,0,-6,-8,1
1582297430337837,4,0,3,1,4,10,4,2
1582297430337837,-6,-3,-3,-5,-4,-10,-9,-5
1582297430352842,5,3,1,0,2,0,0,1
1582297430352842,-6,2,-2,-3,-3,0,1,-3
1582297430353793,-3,-1,-1,-3,-1,1,3,1
1582297430353793,8,3,0,0,0,3,3,5
1582297430374953,0,1,-4,-2,-1,1,-2,-3
1582297430374953,-2,0,2,0,3,2,-4,-1
1582297430376738,3,1,0,0,0,-1,2,4
1582297430376738,-2,1,-1,-1,-1,1,-1,-1
1582297430388921,-5,1,3,2,1,-3,-4,4
1582297430388921,11,3,2,-1,-2,-4,-1,3
1582297430397688,3,0,-5,-2,-3,-5,-8,0
1582297430397688,-4,1,-2,-1,-2,-3,-3,-3
1582297430412638,-5,-3,1,2,-2,-2,-6,-7
1582297430412638,-4,1,1,1,-1,-1,-5,-1
1582297430413634,3,2,1,1,0,-2,0,-1
1582297430413634,-3,0,-4,-5,-3,-2,-4,-3
1582297430434722,-1,2,-2,0,-1,-5,-2,3
1582297430434722,-9,2,-3,1,-3,1,2,-3
1582297430436573,13,4,0,-2,-2,-4,-6,0
1582297430436573,0,2,1,3,2,0,2,6
1582297430448744,0,1,1,1,-2,-1,-3,0
1582297430448744,-9,-4,-4,-3,-4,-1,-3,-9
1582297430458136,-1,-1,0,-1,-2,-3,-2,1
1582297430458136,-3,-3,0,1,0,1,4,0
1582297430472676,-2,1,2,1,1,-1,1,5
1582297430472676,2,-2,-2,-1,1,-1,-1,0
1582297430474470,0,-1,0,0,0,0,-3,-4
1582297430474470,-6,-2,-1,-2,-1,0,1,-2
1582297430495413,0,-5,0,0,0,0,3,-7
1582297430495413,8,8,1,-2,-1,4,3,3
1582297430496572,-8,-4,0,1,-2,-4,-7,-5
1582297430496572,2,-3,-1,2,0,0,-1,2
1582297430508388,-4,1,-6,-4,-3,-1,1,-3
1582297430508388,-10,-7,-2,2,0,-1,-1,2
1582297430517412,4,-3,-5,-5,-4,-2,-2,-1
1582297430517412,-3,-1,-3,-2,-1,-1,0,-4
1582297430532622,0,1,4,0,0,1,-1,7
1582297430532622,0,2,0,1,2,1,4,2
1582297430534309,-5,0,-2,-1,0,-1,-1,3
1582297430534309,-2,-1,0,0,0,-1,-2,0
1582297430555435,6,2,0,-2,-2,-1,0,-3
1582297430555435,-1,-2,-1,-4,-1,0,0,-1
1582297430556254,-5,-6,-3,-3,-2,0,-2,-7
1582297430556254,0,-2,-1,0,-1,-3,-4,-2
1582297430577368,-2,1,-3,-2,1,0,0,-7
1582297430577368,1,-4,-2,-2,-3,-2,0,-2
1582297430579195,-6,6,3,0,-1,-4,-3,-4
1582297430579195,9,-2,0,-1,-3,4,6,-3
1582297430592168,-5,-3,-2,-1,0,-1,-4,-1
1582297430592168,2,1,2,2,1,3,-1,2
1582297430594150,1,2,-1,-3,0,1,3,-1
1582297430594150,-10,4,1,-2,-1,-3,-2,-6
1582297430615343,-2,-7,0,0,0,-3,1,2
1582297430615343,6,-3,-9,-5,-4,-1,6,0
1582297430617094,4,0,-3,-2,-2,-1,3,6
1582297430617094,-1,4,2,1,0,1,-3,1
1582297430638041,-3,-3,-3,-2,-2,-1,-2,-15
1582297430638041,-1,0,1,-1,0,-3,-4,0
1582297430639033,3,-4,-2,-1,-2,-1,0,5
1582297430639033,-3,-1,-3,-1,-1,-1,0,2
1582297430652992,-2,2,1,3,-2,1,-3,-12
1582297430652992,-5,-4,2,2,0,-1,-3,-3
1582297430654233,5,4,3,4,2,1,-3,-1
1582297430654233,-2,-4,-3,-2,1,-3,-3,2
1582297430674939,-3,-1,-2,-2,-2,-1,1,4
1582297430674939,-2,-2,-3,-1,-2,2,-1,-3
1582297430677025,-7,-3,-5,-3,-2,-1,-4,-8
1582297430677025,0,4,1,-1,-1,-4,0,-2
1582297430698087,7,0,5,1,1,2,2,5
1582297430698087,5,0,-4,-2,-2,-2,-2,0
1582297430698868,-6,-3,0,-1,-1,-3,-2,-3
1582297430698868,-1,-7,-3,-3,-2,-1,-3,-5
1582297430713032,-6,-2,-5,-2,-2,-3,-4,2
1582297430713032,-2,-1,-1,-2,-3,-1,0,1
1582297430713831,4,1,0,1,1,1,5,1
1582297430713831,-4,0,-1,0,-2,-1,-4,1
1582297430734829,-8,-5,-2,1,1,0,-5,-9
1582297430734829,-3,-3,-3,-2,0,-1,1,0
1582297430736836,-3,0,-1,-3,-2,1,1,-5
1582297430736836,4,2,3,0,0,0,2,4
1582297430757917,12,1,-1,-3,-3,-1,0,5
1582297430757917,-11,-2,4,3,0,-7,-15,-2
1582297430758716,5,-1,-3,-2,-2,-3,-1,-3
1582297430758716,-7,0,-1,0,-1,0,-2,-7
1582297430771875,-3,-2,-4,-2,-3,0,2,3
1582297430771875,2,1,-3,-1,-2,-2,-1,-5
1582297430778708,-2,-3,-2,-1,-1,1,3,4
1582297430778708,-2,-4,-3,0,0,-3,-8,0
1582297430794666,-3,3,1,-1,0,1,0,0
1582297430794666,2,-2,-1,0,0,-1,0,2
1582297430796610,-2,-2,1,-2,1,1,-2,-1
1582297430796610,5,-1,-1,-1,-3,0,2,3
1582297430816606,-1,-1,-5,-2,-1,-1,1,2
1582297430816606,3,0,-2,-2,-3,-1,-4,-6
1582297430817796,-4,-2,1,-1,-1,0,0,-5
1582297430817796,-2,3,4,0,0,2,3,-2
1582297430831557,1,0,0,0,-1,-1,0,7
1582297430831557,1,2,1,0,-1,0,0,-2
1582297430839723,-3,-3,-4,0,-2,-2,0,-1
1582297430839723,0,-2,-2,-3,0,0,0,1
1582297430854660,1,-1,1,0,0,0,-2,2
1582297430854660,-3,-3,-3,-2,-2,-1,3,1
1582297430855499,-1,-1,-1,0,-1,-2,-5,0
1582297430855499,0,2,1,2,-1,-1,3,4
1582297430876682,-4,-4,-4,-1,-1,-4,-4,-1
1582297430876682,0,1,-1,-1,0,0,3,-3
1582297430877391,0,3,2,1,-1,0,0,1
1582297430877391,4,1,4,2,-1,1,2,2
1582297430891411,-1,-2,-1,0,0,-1,-2,-4
1582297430891411,-2,-4,-3,-2,-2,-1,0,3
1582297430899357,-4,-3,-3,-2,-1,-1,-2,-6
1582297430899357,-4,-5,-6,-2,-2,-1,-2,-6
1582297430914549,3,2,0,-1,-2,-4,-1,1
1582297430914549,-1,-1,1,1,-2,-1,2,7
1582297430915296,-1,0,-1,0,-2,0,1,-2
1582297430915296,-4,-3,-3,-3,-2,-1,-3,-4
1582297430945273,1,-2,-1,-1,-1,2,0,6
1582297430945273,-2,-2,2,2,1,-1,-2,-10
1582297430946207,2,1,0,0,-1,-3,-4,-1
1582297430946207,-4,-2,-4,-1,0,-1,0,-4
1582297430952219,1,-2,-3,-1,-1,-3,-3,0
1582297430952219,0,4,1,-1,0,-2,1,5
1582297430952219,0,-4,-5,-2,-2,-1,1,2
1582297430952219,-2,-3,1,1,-1,-1,-6,4
1582297430974338,0,0,2,0,0,-1,2,3
1582297430974338,-1,-1,-1,-3,-2,0,0,1
1582297430975197,-3,-1,0,-1,0,-2,0,0
1582297430975197,-1,-4,-5,-4,0,-3,1,-7
1582297430997407,-3,-3,-3,-1,-2,-2,-2,-7
1582297430997407,1,-1,-1,1,-1,3,1,0
1582297430998069,-11,-6,-3,-1,0,0,-2,1
1582297430998069,9,1,-1,-1,-3,-2,-6,-3
1582297431012032,-5,-3,-2,-2,0,0,4,-9
1582297431012032,-2,-1,-2,-1,-1,-2,-4,-1
1582297431012032,2,0,0,1,1,0,0,2
1582297431012032,-5,-4,-1,-1,-1,-2,-2,3
1582297431034125,1,0,0,-1,-1,0,1,-1
1582297431034125,-5,-4,-3,-2,-3,-3,-2,-16
1582297431034977,-3,-2,-2,-3,-2,-2,-4,-26
1582297431034977,0,0,-3,-2,-2,0,3,19
1582297431057318,-3,-1,0,0,-1,-1,-2,-3
1582297431057318,-1,-4,-1,-1,-1,-2,-1,6
1582297431057962,1,0,0,0,-2,-3,-2,18
1582297431057962,1,3,1,1,1,-1,0,-9
1582297431072400,-3,-3,-2,-2,-2,0,0,7
1582297431072400,1,-4,-5,-3,0,1,5,1
1582297431072875,0,-4,4,0,2,3,2,11
1582297431072875,5,9,3,-1,2,0,-2,-2
1582297431094832,-7,-1,1,-1,3,0,-3,-9
1582297431094832,-2,0,-1,-1,1,-3,0,-4
1582297431094832,-2,-2,-1,-2,-2,1,-1,-5
1582297431094832,-2,-4,0,1,0,-1,-4,-3
1582297431116803,3,4,3,-1,-2,0,0,-2
1582297431116803,-3,1,3,-1,2,0,0,5
1582297431117747,3,1,-1,-4,0,0,2,-2
1582297431117747,-2,-3,0,2,0,-2,0,-2
1582297431131953,-1,-3,-5,-4,0,-2,-4,-9
1582297431131953,-1,4,0,1,0,1,0,7
1582297431132772,-4,1,0,2,0,-2,-3,-26
1582297431132772,-2,-2,-2,-2,-2,-1,0,2
1582297431154843,2,-6,-2,-1,0,-2,-3,2
1582297431154843,-3,-1,0,-3,0,0,-3,-2
1582297431154843,3,4,3,0,0,0,2,0
1582297431154843,-5,-2,-2,-3,-4,0,1,14
1582297431177593,3,-1,-1,0,-1,-1,-4,-34
1582297431177593,7,4,-2,-1,0,1,2,2
1582297431177593,-1,0,-1,2,1,-1,-1,4
1582297431177593,1,-1,0,0,2,1,4,4
1582297431191603,3,4,0,1,0,-1,-3,7
1582297431191603,0,-1,0,1,0,0,1,0
1582297431199671,3,-1,-3,-4,-3,-3,0,4
1582297431199671,-3,-4,-3,-3,0,2,4,-5
1582297431222624,0,0,-1,-1,-1,-2,-4,8
1582297431222624,2,6,1,-1,-1,-2,-1,-7
1582297431223513,0,1,3,0,-1,1,4,4
1582297431223513,2,1,-1,1,-1,-9,-13,-9
1582297431237432,-10,-5,-4,-3,0,-2,1,2
1582297431237432,-1,-2,-2,0,0,-1,-4,-8
1582297431237432,1,-2,-1,-2,0,0,1,11
1582297431237432,-7,-2,1,2,0,-1,-2,-16
1582297431251441,7,-2,-1,-2,-1,-2,0,0
1582297431251441,-7,-4,0,-1,-2,-1,-2,2
1582297431259803,-1,-2,-2,-1,0,0,0,-2
1582297431259803,-1,3,1,1,0,0,-5,-7
1582297431274564,-3,-1,-3,-2,-2,-2,-2,5
1582297431274564,-3,-4,-1,0,-1,0,1,5
1582297431275336,0,-2,-1,-2,-1,-1,-2,1
1582297431275336,-1,0,0,-2,-2,-2,-4,-4
1582297431297443,-1,2,-1,0,-1,1,1,-3
1582297431297443,0,-5,-5,-4,-1,-2,-1,-2
1582297431297443,-2,-5,-4,1,0,-4,-7,-2
1582297431297443,-5,0,1,-1,1,1,1,-2
1582297431311400,1,5,2,1,1,1,1,3
1582297431311400,-1,0,0,-2,-3,3,1,-3
1582297431319217,1,-3,-1,-1,1,0,2,12
1582297431319217,-2,-3,-2,-4,-1,0,1,-25
1582297431334331,3,0,-4,-3,-1,-1,-2,7
1582297431334331,-3,0,-1,0,-1,-3,-4,4
1582297431335231,1,1,1,-1,-1,-1,0,1
1582297431335231,0,-2,1,-2,-1,-1,1,10
1582297431357308,-9,-4,-1,-1,-1,1,2,-3
1582297431357308,10,4,2,2,0,-3,-3,9
1582297431357308,-4,-2,-1,-1,-3,1,-2,-23
1582297431357308,-3,1,0,2,0,-1,-4,-3
1582297431371316,-1,-3,-1,0,0,0,1,8
1582297431371316,-2,-7,-4,-4,-3,-1,2,5
1582297431379395,1,1,-2,-1,-1,-1,-2,6
1582297431379395,8,4,0,-1,-1,1,2,12
1582297431394072,0,-1,3,1,0,-1,0,-4
1582297431394072,2,-2,1,-2,-2,-2,-4,-8
1582297431395103,-1,-2,-4,-2,-2,-2,-3,-8
1582297431395103,-3,-4,-2,-2,0,0,3,-2
1582297431417261,-1,4,2,1,-1,0,-3,6
1582297431417261,1,1,-1,-1,-2,-1,-1,-8
1582297431417950,1,-2,-4,-2,-2,-1,0,2
1582297431417950,-1,-2,-1,-1,-2,1,2,9
1582297431431169,-4,-3,-3,-1,0,-2,-4,-3
1582297431431169,0,-4,-3,-1,1,0,-2,0
1582297431438946,1,5,1,1,-2,-1,-2,8
1582297431438946,-4,-2,0,0,-1,0,-4,-25
1582297431454853,2,2,2,-3,-2,-3,-2,3
1582297431454853,-4,-3,-2,0,-3,0,-2,-4
1582297431454853,2,2,2,-3,0,-2,-1,3
1582297431454853,0,-1,-2,-3,-1,-1,1,5
1582297431476799,-4,-1,-1,0,0,0,0,-8
1582297431476799,-1,0,1,-1,-1,-2,-2,2
1582297431477790,-2,0,-1,-2,-1,0,3,6
1582297431477790,2,-2,1,2,-1,-2,-3,4
1582297431491220,6,2,-1,-2,-1,-2,-1,3
1582297431491220,-3,-2,0,-2,-1,2,0,0
1582297431499792,-8,-2,-2,0,-1,-2,-1,-26
1582297431499792,-6,-1,-2,-2,-2,-2,-2,6
1582297431514784,4,-1,-2,0,-1,-1,-1,-3
1582297431514784,3,5,-1,0,1,-1,-2,4
1582297431514784,0,-3,-2,-1,-2,-1,-1,0
1582297431514784,-4,-1,-3,-1,-2,-1,-2,2
1582297431536819,-1,-1,-2,-2,0,-2,0,-2
1582297431536819,-4,-2,-3,0,-2,-5,-5,-1
1582297431537687,3,1,-3,0,1,0,-1,1
1582297431537687,2,2,-1,0,-1,-2,-2,-2
1582297431559630,-2,-3,0,-1,-2,-1,-4,-10
1582297431559630,-4,-2,-2,0,0,-1,2,-3
1582297431560570,0,-4,-2,-1,-1,0,-4,-3
1582297431560570,1,2,0,-1,-1,-1,4,8
1582297431574644,2,-2,-2,-3,0,-3,-7,-4
1582297431574644,-3,1,2,0,-2,-2,4,1
1582297431575538,0,-1,1,0,0,-2,-3,0
1582297431575538,2,-2,-1,-2,0,1,5,5
1582297431597467,-3,1,-3,-2,-3,-6,-9,-2
1582297431597467,-4,-2,-3,-3,-2,6,11,-5
1582297431597467,0,-2,1,0,0,-1,4,6
1582297431597467,1,-3,-2,-1,-3,-3,-10,-7
1582297431620594,-2,0,-1,-1,-1,1,0,2
1582297431620594,-2,-4,-1,-3,-1,-2,-9,-5
1582297431620594,-2,1,0,1,-2,-1,11,3
1582297431620594,-3,-2,-3,-1,-1,0,4,-4
1582297431634738,1,2,1,1,0,-2,-16,-7
1582297431634738,-4,-5,-2,-2,-1,2,5,-1
1582297431635365,-2,2,-3,-2,0,1,-4,-4
1582297431635365,-2,-1,0,-1,-1,-6,-2,-1
1582297431657394,0,0,-4,-3,-3,3,8,7
1582297431657394,-3,-3,-1,2,0,-5,-1,-7
1582297431657394,-3,-2,-3,-2,-3,2,-3,-1
1582297431657394,1,-2,-3,-1,0,1,1,8
1582297431680470,-2,-3,0,-2,-3,-1,2,-6
1582297431680470,2,3,-1,0,2,2,23,-9
1582297431681242,-3,-7,-3,-2,-3,-6,-32,1
1582297431681242,1,2,0,0,0,4,22,16
1582297431694263,-5,-3,0,0,-2,-3,-19,-39
1582297431694263,-1,0,2,0,1,-1,-5,-21
1582297431695329,0,-3,-3,-3,-2,0,-2,17
1582297431695329,-4,-3,-4,-3,-2,-2,18,-4
1582297431717293,-2,2,3,1,1,0,22,4
1582297431717293,11,0,-1,0,-2,-4,-37,16
1582297431717293,6,1,0,-2,1,3,4,17
1582297431717293,-11,-4,-4,-1,-3,1,-9,-25
1582297431740128,5,2,-1,0,0,-4,9,29
1582297431740128,4,2,0,-2,-3,-6,-46,1
1582297431741175,-7,-5,0,-1,-1,0,38,-31
1582297431741175,3,-2,0,-3,0,0,10,31
1582297431754097,-7,1,-11,-2,-1,-6,-31,2
1582297431754097,-7,-4,11,2,2,1,17,1
1582297431755250,5,6,0,2,1,1,-15,19
1582297431755250,6,1,3,0,-1,1,11,-31
1582297431777052,-14,-2,0,-3,-1,2,1,-25
1582297431777052,23,2,-6,-4,-2,0,22,22
1582297431778121,-20,-4,0,2,2,-1,-33,-18
1582297431778121,-11,-3,-1,-1,-1,1,29,-19
1582297431800128,-1,1,0,2,1,-2,-19,26
1582297431800128,47,11,1,1,-5,-13,36,73
1582297431800926,-7,-4,-1,-5,-2,-7,-79,-41
1582297431800926,1,-2,-3,-1,-2,-4,13,49
1582297431814174,-42,-4,2,1,3,10,27,-77
1582297431814174,-7,-1,1,1,1,-1,-4,-28
1582297431814896,11,3,1,-1,-1,-4,-7,-1
1582297431814896,0,-3,-1,-3,1,0,-10,-12
1582297431836963,10,-8,-11,-1,-2,1,42,2
1582297431836963,-5,2,3,0,0,-6,-76,3
1582297431837822,15,5,9,2,3,5,37,24
1582297431837822,-2,3,-1,-2,6,4,-58,-37
1582297431859770,22,0,5,-1,-1,-7,2,24
1582297431859770,-32,-3,-14,-1,0,7,16,-45
1582297431860970,-5,-6,-2,-2,-7,-4,1,-32
1582297431860970,14,2,3,-2,-1,2,-20,-25
1582297431874724,12,-2,-5,-5,-4,-10,-12,86
1582297431874724,-6,-8,-2,-2,-1,3,4,-18
1582297431874724,4,5,0,1,1,0,8,26
1582297431874724,-14,-4,-4,-1,-3,-1,23,4
1582297431896792,29,3,3,1,2,-7,-75,37
1582297431896792,-48,-5,0,-1,-13,-6,5,-85
1582297431897667,2,-3,-2,-1,10,5,31,30
1582297431897667,-7,0,-6,-1,-6,-9,-20,17
1582297431920603,2,3,8,6,11,-5,5,-37
1582297431920603,-12,-4,-2,-3,-4,10,-38,59
1582297431920603,22,-1,-5,-2,-10,-13,26,12
1582297431920603,10,1,1,2,1,3,15,6
1582297431934748,-13,1,1,-4,4,19,9,17
1582297431934748,-1,-4,-3,0,4,22,12,4
1582297431935562,-20,-1,-3,2,-5,-8,15,-53
1582297431935562,6,-5,-2,-3,-8,-5,-40,28
1582297431956997,-2,-1,1,-2,-5,-6,0,5
1582297431956997,-7,-1,-2,0,6,-1,21,-6
1582297431957507,0,-2,-4,-3,-3,7,0,13
1582297431957507,0,-1,-3,-2,1,0,16,4
1582297431980446,-5,0,2,1,5,13,9,-25
1582297431980446,12,1,-2,-2,-5,-10,-11,-10
1582297431980446,3,-1,2,1,2,-5,-13,6
1582297431980446,-1,1,-1,-1,0,-4,-1,0
1582297431995407,-5,0,0,3,-3,6,36,-20
1582297431995407,9,-7,-1,2,2,-10,-12,16
1582297432002382,-9,-2,-6,-4,-4,9,90,44
1582297432002382,2,15,6,1,2,-1,-22,-18
1582297432016711,5,0,-4,-1,-10,-6,-2,-2
1582297432016711,-5,-3,-1,-2,-1,-6,7,3
1582297432017347,-20,-11,-3,-1,2,5,-27,-17
1582297432017347,25,5,-2,-5,-3,-1,4,3
1582297432040496,-28,-2,0,2,-6,-3,3,-14
1582297432040496,11,10,4,0,1,-2,-38,-11
1582297432040496,-10,0,-1,0,1,2,-21,-16
1582297432040496,-9,-8,-4,-1,-1,4,13,0
1582297432054450,9,-5,-2,-3,-6,-12,-5,5
1582297432054450,0,3,1,9,3,0,20,-2
1582297432055443,1,-4,0,-3,0,-2,-1,15
1582297432055443,1,0,-1,-6,-3,3,-12,1
1582297432077212,3,-1,6,10,-10,1,6,-5
1582297432077212,-4,-3,-4,-17,18,1,5,5
1582297432077212,7,6,-9,-14,9,-5,-13,9
1582297432077212,-2,-4,-6,-20,-4,6,-2,3
1582297432100167,-3,-2,-3,20,7,-22,-11,-4
1582297432100167,5,2,4,-8,-30,14,16,17
1582297432101124,0,0,0,-6,40,-20,-19,-7
1582297432101124,-8,-5,2,18,-41,15,-18,-3
1582297432114613,-4,-6,-3,-6,7,9,-7,-17
1582297432114613,0,-1,-2,25,-4,-8,12,6
1582297432115085,3,-2,-5,-16,1,11,33,8
1582297432115085,-8,-2,-2,-5,6,-6,-19,-32
1582297432137528,5,1,-1,15,-5,26,16,18
1582297432137528,0,-4,-3,-43,21,-27,-10,-1
1582297432144211,0,3,1,13,-6,-8,7,-5
1582297432144211,-2,1,4,7,-3,-17,6,13
1582297432160022,1,-2,-7,-7,-2,10,-9,-3
1582297432160022,-2,-2,2,-12,0,9,16,-2
1582297432161201,1,0,5,30,-2,6,-16,-9
1582297432161201,0,0,-4,-17,7,-13,1,2
1582297432174132,-6,-3,-1,3,4,1,-6,-5
1582297432174132,1,1,-9,-2,-8,0,1,2
1582297432182087,7,1,12,5,-10,-5,-9,0
1582297432182087,-16,-6,2,47,14,7,-10,-12
1582297432197266,0,-1,-2,-24,-7,0,6,4
1582297432197266,-2,-2,-5,6,0,15,1,3
1582297432197859,4,1,-6,18,-32,-18,-9,-4
1582297432197859,2,1,-3,-35,28,-5,6,5
1582297432219851,4,1,-2,-18,1,7,0,4
1582297432219851,0,1,-2,1,-5,-6,-1,-3
1582297432220804,-1,1,-2,7,-16,17,-15,-12
1582297432220804,-5,-5,-3,-14,22,-24,27,8
1582297432233912,2,-1,11,25,-23,-2,1,3
1582297432233912,5,1,1,15,-5,-8,-3,2
1582297432241801,-6,-2,3,-14,-4,8,-3,-4
1582297432241801,-2,0,4,28,-7,8,18,-5
1582297432256864,5,1,-13,-67,20,0,-7,8
1582297432256864,1,-4,-7,-8,6,-1,2,9
1582297432257902,3,4,8,30,4,-13,-6,-1
1582297432257902,0,0,-3,0,-17,19,-6,-6
1582297432280080,-3,-1,3,32,4,1,-2,0
1582297432280080,3,2,0,-4,-6,3,-6,-5
1582297432280645,-4,-3,-5,-36,28,7,-3,-2
1582297432280645,2,0,3,16,-23,-33,4,4
1582297432293657,0,1,-1,-1,1,5,8,19
1582297432293657,-4,-2,1,-6,6,-13,-2,-13
1582297432301924,-1,2,-1,-5,-8,-8,-12,-6
1582297432301924,1,0,0,-3,9,-44,6,3
1582297432316832,-2,-1,-5,-8,9,38,-26,-27
1582297432316832,-6,-3,-1,0,-6,-8,8,9
1582297432317545,1,-2,0,4,-19,13,0,4
1582297432317545,1,0,2,-5,-5,9,5,0
1582297432340537,-2,-2,0,-5,0,-33,3,3
1582297432340537,0,-4,0,16,16,30,-1,0
1582297432340537,-2,-3,-4,-10,-4,-37,-6,-7
1582297432340537,0,0,-4,-13,-10,31,-2,3
1582297432353643,0,0,-2,6,-4,-21,-6,-7
1582297432353643,-2,1,3,5,4,12,5,-3
1582297432361925,-4,-2,-3,-1,-2,4,-10,-4
1582297432361925,-1,-1,1,-7,2,10,-15,-8
1582297432376430,0,-2,-3,-5,23,-11,5,2
1582297432376430,1,-1,2,-10,-20,-7,-5,-3
1582297432385404,-4,-1,-3,8,6,8,1,0
1582297432385404,-2,-1,-2,10,22,-14,-4,2
1582297432400379,0,1,3,6,-30,12,-6,-2
1582297432400379,-4,-5,-4,-11,8,-1,12,0
1582297432401390,0,-4,-4,-10,-5,-4,2,-1
1582297432401390,-1,-1,-1,-28,-4,-1,-16,0
1582297432413418,0,-1,-1,14,19,-19,4,1
1582297432413418,-2,0,-2,1,-9,-17,-4,-5
1582297432422333,-1,-1,0,19,-16,28,5,-3
1582297432422333,-2,-2,-6,-25,9,1,-8,0
1582297432436370,0,1,3,-21,-7,0,3,2
1582297432436370,2,1,-1,29,12,-3,-2,1
1582297432445201,1,0,2,-2,-8,-15,-2,1
1582297432445201,0,-2,-3,-14,-15,6,-2,-1
1582297432460209,-2,-1,-3,-1,-12,-3,-9,-3
1582297432460209,0,0,1,4,-4,-9,5,-2
1582297432461306,0,-3,-1,-9,7,3,-2,-1
1582297432461306,-1,-1,0,13,-9,10,1,0
1582297432484094,0,-4,-2,2,-3,-7,4,1
1582297432484094,-1,0,-1,10,-2,12,1,-1
1582297432485500,-1,0,-2,-15,8,-7,-2,-1
1582297432485500,1,3,0,-4,-6,1,-4,-3
1582297432496493,2,2,-2,8,9,-3,2,0
1582297432496493,-2,-2,-1,10,-4,-3,5,1
1582297432505280,-1,-2,-4,-13,1,2,-5,0
1582297432505280,1,0,-2,-7,5,1,-1,3
1582297432520461,-1,-1,-1,-12,-15,-8,-2,-3
1582297432520461,-2,-1,2,-1,-9,-6,-11,-2
1582297432522000,-3,0,-2,8,19,14,1,-3
1582297432522000,0,0,0,10,-6,-17,5,2
1582297432542936,-1,-2,-2,1,-4,-3,-3,-2
1582297432542936,0,-1,0,-4,15,12,0,0
1582297432543932,0,0,1,12,-23,-10,6,-1
1582297432543932,-2,-2,-1,-12,3,-1,-4,-2
1582297432557909,1,0,0,17,21,12,7,3
1582297432557909,-2,-1,0,-15,-19,-7,-8,-5
1582297432559256,3,-1,-2,-14,3,-2,-1,0
1582297432559256,-1,0,1,4,0,15,-1,-1
1582297432580835,0,-1,0,3,-7,-8,5,0
1582297432580835,0,0,-1,-4,-5,2,-2,1
1582297432581832,0,0,0,4,-4,-6,-5,-3
1582297432581832,0,-1,0,13,-4,-6,-1,0
1582297432601836,-1,-2,-3,-26,15,8,3,-2
1582297432601836,1,-1,-2,-1,3,5,-2,2
1582297432609803,-3,-1,-1,-4,-9,1,1,1
1582297432609803,0,1,2,7,-3,-4,-2,-2
1582297432615976,-2,-1,0,1,-8,1,-2,-1
1582297432615976,-2,-1,-1,-1,-3,-12,-16,-5
1582297432625717,1,-3,-4,-8,13,2,4,0
1582297432625717,0,0,-2,3,6,17,3,-1
1582297432640135,0,1,0,22,-7,-12,-6,0
1582297432640135,0,-1,0,-7,-4,3,5,1
1582297432642049,-3,1,-1,-9,4,4,-6,-2
1582297432642049,0,-2,-2,2,1,-5,1,-1
1582297432662801,0,-3,-3,-1,-11,-2,1,-3
1582297432662801,-1,-2,-2,8,10,-5,0,0
1582297432664274,-2,-2,-1,5,-3,0,0,1
1582297432664274,-2,-1,2,11,-8,-6,-3,-2
1582297432676582,-2,-2,-1,-38,0,5,6,1
1582297432676582,-1,2,-3,-7,-1,1,-2,1
1582297432685619,0,-2,-2,-4,-2,1,2,-1
1582297432685619,1,-1,-1,1,-1,-1,-4,0
1582297432700519,-3,-2,0,12,-10,-5,-3,-5
1582297432700519,1,-1,1,-7,2,1,3,-1
1582297432701511,0,0,0,-5,-2,2,3,1
1582297432701511,-3,-1,-2,4,-5,-10,-7,0
1582297432722666,-1,1,0,1,2,0,-8,0
1582297432722666,-2,-4,-1,6,1,-2,1,-1
1582297432724451,-1,0,-2,-7,-9,-6,0,0
1582297432724451,0,-2,-1,7,4,7,5,0
1582297432737417,-1,1,-2,6,17,2,0,-3
1582297432737417,-2,1,-2,-26,-12,-6,3,-1
1582297432743399,-2,-2,2,6,-4,-8,-2,-2
1582297432743399,-3,-2,0,-3,2,13,1,1
1582297432760447,-2,0,-2,-11,0,0,2,1
1582297432760447,1,-1,-2,6,-2,3,2,1
1582297432761351,-1,0,-1,-3,-1,-8,-1,-2
1582297432761351,-3,-2,-2,10,-5,-14,-6,-4
1582297432782560,0,-1,-1,6,-13,-3,-4,-5
1582297432782560,-2,-4,-1,-11,10,11,5,-1
1582297432784289,-1,-1,-2,-1,2,9,3,0
1582297432784289,0,1,0,-1,-1,-9,-7,-1
1582297432796313,-1,0,0,5,-3,-1,-1,0
1582297432796313,-2,0,-1,4,-7,-5,-4,-1
1582297432805292,-1,-1,0,1,4,2,3,1
1582297432805292,-1,-2,-1,-6,-3,-4,-2,-1
1582297432820196,-3,-1,-1,-6,-11,-6,0,-2
1582297432820196,1,-2,-1,4,14,-1,-6,0
1582297432821591,-2,-1,0,23,0,4,2,-1
1582297432821591,0,-1,0,-16,1,1,1,0
1582297432842192,1,0,-1,-7,-4,-5,-2,2
1582297432842192,0,-2,1,-1,-10,-10,-7,-1
1582297432844217,-1,0,-3,6,8,9,-1,-1
1582297432844217,0,-1,-2,8,2,2,2,-1
1582297432856259,-1,-2,-1,1,-2,2,0,-2
1582297432856259,0,-2,1,6,-3,-6,-2,-4
1582297432865347,-1,-2,1,-9,-7,-3,-3,0
1582297432865347,0,-2,-2,-15,8,4,3,0
1582297432880168,-2,-3,-4,-6,-8,-8,-6,-1
1582297432880168,-1,0,-1,12,2,5,3,0
1582297432886075,0,-1,-2,-10,-2,-2,-7,-3
1582297432886075,-2,0,0,1,-5,-2,0,0
1582297432903007,0,0,-1,1,4,1,5,-1
1582297432903007,-2,0,-2,2,-2,-2,-3,-2
1582297432904042,-1,-1,-1,-2,-12,-5,-1,0
1582297432904042,2,0,-1,1,7,3,-5,-1
1582297432917342,-2,0,-1,-2,3,-2,-2,0
1582297432917342,2,-1,-1,2,-6,-3,0,-1
1582297432924116,-2,-2,1,-4,4,1,3,0
1582297432924116,-2,0,-1,2,-7,-1,-2,-1
1582297432940367,0,-1,1,7,3,-5,-2,0
1582297432940367,-2,-3,-2,-11,-1,6,0,-2
1582297432942072,0,0,-2,-6,-3,-4,3,-1
1582297432942072,-2,-3,-2,-1,2,-1,-5,-2
1582297432963197,0,-2,-2,5,-1,-2,-3,-2
1582297432963197,-1,-1,-1,11,-8,-6,-6,-1
1582297432963813,-1,-3,-2,-20,-7,-3,-2,0
1582297432963813,0,0,0,-7,23,7,4,1
1582297432975795,1,-1,-2,-4,-7,3,1,2
1582297432975795,0,3,1,-1,2,4,4,-2
1582297432985177,-4,0,0,14,-6,-5,-8,-2
1582297432985177,-2,-1,0,1,-9,-5,-1,-1
1582297433000171,2,-2,0,1,6,6,0,0
1582297433000171,1,1,0,-2,-1,-3,1,1
1582297433001715,2,0,-1,9,1,0,-2,-3
1582297433001715,0,-1,-2,-5,-4,-3,-1,-2
1582297433023651,-3,-1,2,1,-8,-1,-3,0
1582297433023651,0,-3,-2,-4,2,0,1,-1
1582297433026641,0,0,-2,-5,4,0,-1,-1
1582297433026641,0,1,-2,4,-6,-6,-3,0
1582297433029687,1,0,-2,0,1,2,2,-1
1582297433029687,-1,-1,0,-6,-5,-3,-3,-1
1582297433038898,1,0,0,-3,1,-3,-4,2
1582297433038898,-2,-1,-2,4,-3,2,1,0
1582297433051573,-3,0,1,4,-3,0,-1,-2
1582297433051573,-2,-3,-2,-3,0,-13,-3,-2
1582297433059730,-1,-1,-3,-5,1,5,1,-2
1582297433059730,-2,-2,-1,4,-7,6,3,0
1582297433074572,-3,-2,-1,3,13,0,-5,-2
1582297433074572,-1,-1,-3,-25,0,0,2,-1
1582297433075511,-2,-2,-5,-1,-2,-6,-1,0
1582297433075511,-1,-2,-1,0,-12,-14,-4,-3
1582297433089000,-1,-2,-2,-1,-5,2,-2,-3
1582297433089000,-2,-2,0,12,6,9,2,-1
1582297433096508,-5,-3,0,4,0,4,-1,-4
1582297433096508,-1,-3,-2,-4,-2,2,4,-2
1582297433111540,-3,-3,-3,-3,0,-6,0,0
1582297433111540,-1,-2,-2,2,-3,-7,-3,-3
1582297433119594,0,0,-1,1,1,3,2,-2
1582297433119594,-3,-2,-2,2,-3,-2,-3,-5
1582297433142524,-1,-2,-1,1,-5,-2,-1,-1
1582297433142524,-2,-3,-5,-7,0,1,0,0
1582297433143328,-2,-4,-3,-2,0,-9,-5,-3
1582297433143328,-1,-3,-2,-5,0,2,6,-1
1582297433148628,-1,-3,-2,-4,-14,-2,2,-4
1582297433148628,-2,-3,-1,7,10,0,-4,-2
1582297433156490,-2,-2,-1,-4,-1,-6,3,0
1582297433156490,-2,-5,-2,0,1,1,-2,1
1582297433171447,-1,-3,0,-6,-1,5,1,1
1582297433171447,-2,-1,3,4,-2,1,3,-1
1582297433179432,1,-1,-1,3,-1,1,-5,-2
1582297433179432,-1,0,2,-1,3,3,3,-1
1582297433194471,1,-1,-1,0,-1,-3,0,1
1582297433194471,0,-2,-1,10,-1,-3,-3,-2
1582297433195240,-4,-2,0,-5,0,-1,-1,-1
1582297433195240,-1,0,0,-4,1,8,-1,-2
1582297433209161,1,-1,-3,-4,0,-7,1,-2
1582297433209161,0,-2,-3,-3,-3,4,0,1
1582297433217329,1,-1,0,9,-2,-6,-5,-1
1582297433217329,0,-2,-1,-1,-9,-4,-4,-1
1582297433231289,-2,-1,0,-6,11,-3,-1,-1
1582297433231289,-2,0,0,-4,-12,-4,0,2
1582297433240108,0,0,-2,5,-2,6,3,-2
1582297433240108,-1,-1,2,0,4,3,1,0
1582297433254504,-1,0,-3,-4,-1,5,0,1
1582297433254504,-1,0,-2,-3,-5,-6,-1,-1
1582297433255034,1,-2,0,0,4,0,0,-2
1582297433255034,0,0,1,6,-1,-6,-2,-2
1582297433269205,-1,-1,0,0,-6,2,0,0
1582297433269205,-3,0,-4,-4,6,-2,-5,-1
1582297433276985,0,0,1,-1,0,1,3,2
1582297433276985,0,0,-2,-2,-2,-4,-7,-2
1582297433291232,1,0,-1,2,-3,-8,3,0
1582297433291232,0,0,-1,2,-1,3,1,-1
1582297433300245,0,-1,-1,-4,-4,-11,-1,-3
1582297433300245,-1,1,-2,4,-4,13,2,2
1582297433314015,-1,-1,0,0,7,-7,-4,-2
1582297433314015,1,2,0,-3,-9,-6,-3,-1
1582297433322916,-1,-2,-2,-3,5,5,0,0
1582297433322916,-1,0,1,-1,-1,-6,-1,0
1582297433328887,0,0,0,26,-9,-2,-2,-2
1582297433328887,-1,-1,1,-14,3,3,1,0
1582297433337813,0,-1,-6,-4,11,3,3,2
1582297433337813,0,0,-1,-3,-1,-4,-5,-1
1582297433350973,0,1,-1,-2,0,6,1,2
1582297433350973,0,0,-1,7,-5,-8,-5,1
1582297433359800,-1,1,3,0,-8,-6,0,0
1582297433359800,-2,-1,0,0,9,0,-2,0
1582297433373918,1,1,0,0,2,7,0,0
1582297433373918,-2,-1,-1,-10,-4,2,-8,-2
1582297433382699,1,0,1,6,-7,3,0,2
1582297433382699,-1,-2,-4,-6,8,-6,2,0
1582297433388977,-1,2,0,-5,-6,-1,-1,-1
1582297433388977,-2,-2,0,1,-6,-1,3,-1
1582297433397653,-3,1,-1,-2,-1,-4,-2,-2
1582297433397653,2,-1,0,3,0,-1,-9,-2
1582297433412617,1,-1,-3,-7,-2,2,3,0
1582297433412617,0,0,-3,-6,-1,0,-1,-2
1582297433420588,-3,-1,-1,3,-3,2,-5,-3
1582297433420588,-1,-1,1,5,1,-4,3,-1
1582297433433821,-1,-2,-3,-13,2,0,-1,-1
1582297433433821,-1,0,2,7,-2,-3,-1,-1
1582297433442919,0,-1,1,-3,3,-1,-2,1
1582297433442919,-1,1,-2,-4,-8,10,3,0
1582297433448721,-1,-1,-1,-3,9,-9,-1,-2
1582297433448721,2,-1,-2,4,7,0,-3,-1
1582297433457553,-2,0,-2,1,-5,-5,-4,-2
1582297433457553,0,-1,0,-7,-3,-7,2,0
1582297433471677,0,-2,-1,6,-3,7,-1,2
1582297433471677,-2,-1,0,-14,-2,-3,-3,-1
1582297433480468,-2,-1,-1,-4,0,-1,-5,1
1582297433480468,-1,0,-2,0,-6,5,-1,-1
1582297433493951,-3,-2,0,5,1,-3,2,-3
1582297433493951,-3,-1,-2,1,3,-8,1,-1
1582297433502439,1,-1,-1,-4,-5,3,-1,-3
1582297433502439,-1,1,-2,2,6,1,-1,-3
1582297433508416,-2,0,1,1,-4,0,-5,-2
1582297433508416,0,-1,0,-6,2,6,2,-1
1582297433517644,0,-2,0,-4,0,-6,3,-1
1582297433517644,1,0,-1,5,-4,-4,-4,0
1582297433531435,-3,-2,1,-2,2,-3,-3,-2
1582297433531435,0,1,-1,-3,7,8,9,0
1582297433540501,-1,-1,-2,1,-4,-1,-1,-2
1582297433540501,-2,0,0,-1,-2,-4,-4,0
1582297433554284,-1,-2,-1,-6,-4,-6,-4,0
1582297433554284,-1,-2,-1,6,-4,0,1,0
1582297433562410,-1,0,-1,-5,4,5,9,2
1582297433562410,-1,-3,-1,2,1,-5,-8,-4
1582297433569257,-1,0,-1,-2,-3,3,-1,-1
1582297433569257,0,0,-1,0,-6,-8,-2,0
1582297433577174,-2,-2,-1,9,2,8,2,-3
1582297433577174,-2,-1,0,-5,3,10,4,0
1582297433591187,-1,1,-2,-8,-12,-7,-5,-3
1582297433591187,0,-2,-1,17,9,0,-1,-3
1582297433600115,-1,-2,1,-17,-1,-5,-6,-1
1582297433600115,-2,0,1,4,-6,0,0,-1
1582297433614079,-2,-2,-3,-23,4,6,2,1
1582297433614079,-1,0,0,3,-8,1,0,-1
1582297433623061,-1,-2,0,3,-5,-4,-2,-2
1582297433623061,-1,-1,-1,6,5,-5,1,-2
1582297433629077,-3,-1,1,6,0,1,3,-1
1582297433629077,0,-1,-2,-4,-6,-7,-16,-2
1582297433638008,0,-1,-1,3,2,-1,2,-2
1582297433638008,-2,-2,-2,-11,-9,-3,0,0
1582297433651191,-2,-2,-1,6,-1,3,2,-1
1582297433651191,-2,0,0,5,1,-5,3,1
1582297433660097,1,2,-1,-8,2,11,2,0
1582297433660097,-1,0,-2,1,3,-4,-4,1
1582297433674081,2,0,-1,0,-3,-9,-3,0
1582297433674081,-1,0,1,5,1,2,-3,-2
1582297433682931,-1,1,0,-5,-11,-3,-3,-1
1582297433682931,-1,-2,-2,-4,9,-2,8,-1
1582297433698295,-2,-1,-1,-1,-5,1,-1,-1
1582297433698295,0,-1,-1,-3,-4,-1,0,-1
1582297433698844,0,0,0,-5,-5,-5,-1,-2
1582297433698844,0,-2,0,1,3,5,3,0
1582297433711127,1,0,0,2,1,-4,-12,-1
1582297433711127,-2,-3,-1,-3,-5,0,-4,0
1582297433720292,-1,-3,-1,10,2,-2,-1,-1
1582297433720292,1,-1,-2,-12,-2,3,1,1
1582297433734127,1,-1,0,6,3,-4,3,-2
1582297433734127,-2,0,-1,-6,-2,4,1,-1
1582297433743008,1,-1,-2,4,3,7,-2,0
1582297433743008,0,0,-2,1,-5,-1,-2,-4
1582297433757749,-1,-2,-1,-2,-3,-6,-2,2
1582297433757749,0,-1,1,-1,2,1,0,-1
1582297433759218,-2,-1,-2,-6,-10,-7,1,-2
1582297433759218,-1,0,-1,5,6,2,-1,-2
1582297433771762,0,-1,-2,-2,2,6,-1,-2
1582297433771762,-2,0,0,2,0,-5,1,0
1582297433779768,1,-2,-2,-7,-2,-5,-3,2
1582297433779768,-2,-1,2,-2,-13,-8,-8,0
1582297433794637,-2,-3,-2,-2,2,0,6,0
1582297433794637,0,-3,-4,4,7,0,0,0
1582297433801646,0,0,-1,1,-1,7,3,0
1582297433801646,0,0,-1,-5,-3,-8,-3,-1
1582297433817662,0,0,1,7,6,7,-2,-1
1582297433817662,0,-1,0,3,-4,-3,2,0
1582297433819523,-2,-3,0,-13,-6,-6,-4,0
1582297433819523,-1,-1,-2,-2,9,6,-2,-1
1582297433831571,-2,-1,-1,-2,-2,1,4,-1
1582297433831571,-1,-1,-3,-3,-6,-3,3,-2
1582297433840510,0,1,1,15,5,-2,-4,-2
1582297433840510,-2,-2,0,2,-6,-6,-4,0
1582297433854665,-1,2,0,-4,-4,7,0,-2
1582297433854665,0,0,-1,-11,-1,-3,2,-2
1582297433861472,0,0,-3,0,-1,-3,0,-1
1582297433861472,-1,-2,-2,1,-6,-5,1,-1
1582297433877846,0,0,-2,7,4,-2,-4,0
1582297433877846,-2,-1,1,-6,-3,-1,-1,-2
1582297433879367,-1,-3,1,-3,2,7,2,-2
1582297433879367,-2,-2,0,2,-1,-1,1,-3
1582297433891386,0,-3,-1,-3,-5,-5,0,1
1582297433891386,-1,-1,-2,11,2,-1,-4,-1
1582297433900504,-1,-2,-2,-8,2,-1,3,0
1582297433900504,1,-1,-1,-9,11,5,-5,-2
1582297433922461,0,-1,0,1,-4,1,0,-1
1582297433922461,0,-1,-2,8,0,-1,-2,-3
1582297433924243,-1,0,-2,-3,-5,1,-1,1
1582297433924243,-1,-1,-1,-5,-6,-3,1,-1
1582297433945334,-1,-1,-2,-2,0,1,-1,-3
1582297433945334,-1,-2,0,2,-1,0,0,0
1582297433946401,-1,-2,0,10,1,-7,-3,-4
1582297433946401,0,0,-2,-10,-7,-6,-6,0
1582297433959146,-2,-2,-2,-1,0,6,2,-3
1582297433959146,0,0,-1,-6,2,1,-2,1
1582297433968123,-1,-1,-1,4,1,-6,-2,-3
1582297433968123,0,1,0,-3,-3,0,4,-1
1582297433982634,0,-3,-1,3,-2,-6,3,-2
1582297433982634,0,-1,-1,-3,1,6,-2,1
1582297433984079,-3,-2,-4,-8,-4,-5,-3,-1
1582297433984079,-2,-3,-1,6,2,-5,-1,0
1582297434005440,0,-1,1,-4,3,2,-2,-1
1582297434005440,0,-1,-1,4,0,0,-1,-1
1582297434007024,-2,1,1,4,3,-2,3,1
1582297434007024,-1,-2,0,-3,-11,-2,2,-3
1582297434019446,-1,-3,-2,-2,1,0,-4,1
1582297434019446,-1,-1,-2,-14,-1,1,-2,-3
1582297434027968,0,0,-1,3,-4,-5,2,-3
1582297434027968,-1,0,-2,1,1,3,1,0
1582297434042930,-1,1,-3,6,1,-6,-3,-1
1582297434042930,-2,-1,0,-2,-4,-1,1,-1
1582297434043931,0,0,-1,6,1,-2,-5,-2
1582297434043931,0,-1,-2,0,-1,9,5,-1
1582297434065067,1,0,-3,-5,4,6,2,0
1582297434065067,-1,0,-1,-3,0,-8,-6,0
1582297434066864,-1,0,1,-5,-1,-1,3,0
1582297434066864,-2,-2,2,3,-2,-7,-5,0
1582297434078885,1,-1,0,10,-10,-4,-1,-2
1582297434078885,1,-1,-1,-1,10,7,7,-2
1582297434087806,-1,-4,-5,-15,6,4,0,0
1582297434087806,-1,-1,-3,-1,-2,-4,-7,0
1582297434102944,-2,1,-2,-4,-5,-3,-1,0
1582297434102944,-3,-1,-1,7,-3,-2,1,-1
1582297434103772,0,-2,2,5,0,-6,-3,1
1582297434103772,0,1,-2,4,-1,16,6,0
1582297434124706,-1,0,-2,-3,-3,-7,-4,0
1582297434124706,-1,-1,1,1,-3,1,-2,-2
1582297434126708,-1,2,-4,-14,7,8,4,0
1582297434126708,-3,-1,-2,-1,-1,-9,-6,-1
1582297434138954,0,0,0,1,-3,-2,-3,0
1582297434138954,-1,-2,-1,1,-3,-9,0,0
1582297434147697,-2,-2,0,3,-4,9,-2,-1
1582297434147697,1,-1,1,-1,-4,3,5,-3
1582297434163604,-1,-3,-2,0,5,-11,0,0
1582297434163604,0,1,-3,-7,3,2,3,0
1582297434164603,0,0,-2,-2,-2,-7,-5,-1
1582297434164603,0,-1,-1,-2,1,-2,-3,-1
1582297434184685,-2,-2,0,-2,-3,6,1,0
1582297434184685,-1,0,-1,1,-4,2,-1,-1
1582297434186539,-2,-1,-1,-4,1,-4,5,-2
1582297434186539,1,1,-1,2,4,1,-2,-3
1582297434199002,-3,-1,-1,-5,-3,-2,-5,0
1582297434199002,-1,-3,0,-6,-5,0,-1,-2
1582297434207490,1,0,0,1,5,-3,-2,0
1582297434207490,-1,-1,-1,-4,-1,11,6,0
1582297434222606,-2,1,0,1,1,-9,-10,-1
1582297434222606,-2,0,-1,-3,-4,5,0,1
1582297434224458,1,-1,-2,6,-6,-3,0,-1
1582297434224458,-3,-3,-1,-1,-2,-3,0,-2
1582297434245581,-1,-2,-4,-11,-5,3,2,0
1582297434245581,-1,0,-1,0,3,-5,-5,-3
1582297434246390,1,0,-2,6,-1,4,-2,-2
1582297434246390,-1,0,-1,0,6,10,8,1
1582297434259255,-1,-2,-1,-2,-3,-1,-4,-3
1582297434259255,1,-3,-1,-3,-5,-7,1,-2
1582297434273793,-3,-1,-2,0,0,-2,-2,-1
1582297434273793,-2,-1,-1,-3,-3,-9,-8,-2
1582297434282471,-1,0,0,0,0,2,5,-3
1582297434282471,-1,-1,-2,0,1,2,1,0
1582297434284277,-2,-1,1,0,-5,1,-3,-1
1582297434284277,1,-1,-1,13,1,0,-2,2
1582297434305454,-2,0,-2,-11,5,6,-1,-2
1582297434305454,-1,-1,-2,1,-3,-4,1,-1
1582297434306218,0,-2,-1,-2,-3,0,0,0
1582297434306218,-2,-1,-1,-2,-6,-9,-3,-1
1582297434318243,1,-2,0,6,-1,0,-1,0
1582297434318243,-2,-1,-1,-2,2,3,-2,-2
1582297434328159,-2,-4,-1,-2,-13,2,-1,0
1582297434328159,-1,-1,1,10,12,-14,-5,-3
1582297434343237,2,-1,1,-2,3,23,5,-1
1582297434343237,-2,0,-3,-5,-1,-7,4,1
1582297434344115,-2,-1,-1,-10,-1,-1,-1,0
1582297434344115,0,-2,-1,-5,-8,-6,-1,-1
1582297434365259,-3,-2,-1,4,-3,-13,0,-1
1582297434365259,0,0,0,-3,-4,-2,-7,0
1582297434367055,-1,0,2,13,-1,-4,1,0
1582297434367055,-1,0,-2,-4,-3,1,-1,-1
1582297434388097,-1,2,-4,-21,10,13,6,0
1582297434388097,1,-1,-1,1,-2,5,-7,-3
1582297434389994,1,0,-2,1,3,-9,-3,0
1582297434389994,-2,-1,0,1,-7,-2,-2,-1
1582297434403014,0,-1,0,6,-4,-9,-2,-1
1582297434403014,-3,-2,-1,-1,0,3,2,-2
1582297434403963,-1,1,-2,-1,0,1,-6,-3
1582297434403963,-1,-2,-2,-3,-11,-7,-1,-1
1582297434425198,-1,-1,0,3,2,-1,-1,1
1582297434425198,1,0,-1,-5,4,2,4,1
1582297434426900,-1,-1,0,5,-1,9,0,-2
1582297434426900,-1,1,-3,-15,-1,1,0,0
1582297434448023,-1,0,0,4,-6,-7,-4,1
1582297434448023,-1,-2,1,7,-1,-8,-4,-3
1582297434448973,-1,0,0,0,2,5,1,-1
1582297434448973,-1,-1,-2,-5,-1,3,3,-4
1582297434461090,-1,0,-2,7,-2,-2,-2,-2
1582297434461090,-2,1,-2,-3,1,-4,-2,-2
1582297434469924,1,-1,-1,-9,-1,-3,-2,1
1582297434469924,-1,0,1,-6,1,-1,-1,-1
1582297434484935,-1,0,0,0,-3,-4,-2,-2
1582297434484935,0,0,-3,2,-2,2,-1,1
1582297434486736,-1,0,-1,7,-12,-5,-2,-1
1582297434486736,-1,0,-3,-11,12,10,-1,-1
1582297434507680,-1,-1,-3,3,5,3,5,1
1582297434507680,0,-1,-1,4,-3,-2,0,0
1582297434508848,-1,-1,-2,-15,-1,-4,-5,-1
1582297434508848,1,-2,1,4,-6,-4,-2,1
1582297434522911,-1,1,1,1,-4,-6,-5,-4
1582297434522911,1,0,1,1,5,-1,1,0
1582297434523635,-1,-1,-1,-1,1,-2,3,-1
1582297434523635,-1,1,-2,4,-2,-2,0,0
1582297434552759,-3,0,-2,-4,-2,-2,-3,-1
1582297434552759,-2,-2,0,-3,-4,-1,-4,0
1582297434554561,1,-1,-2,2,6,2,0,-2
1582297434554561,0,-3,-3,5,1,-6,-5,-2
1582297434567717,0,-1,-1,-2,-7,5,5,1
1582297434567717,-3,-1,-4,-13,-1,1,-5,-2
1582297434569515,-1,0,-2,8,16,-5,-1,-1
1582297434569515,0,-1,-1,-2,-5,1,0,0
1582297434581643,1,-1,0,7,-2,-1,-3,0
1582297434581643,1,0,0,1,-7,1,-2,0
1582297434588931,-1,-1,0,-1,1,3,2,-3
1582297434588931,-2,0,-2,0,0,-5,-2,0
1582297434612928,-2,-1,-2,-3,1,0,-1,-3
1582297434612928,0,-1,-1,-1,-4,-2,-6,-2
1582297434614393,-3,-1,-1,-1,-5,2,1,1
1582297434614393,2,-1,0,3,0,-7,0,-1
1582297434627419,-3,0,1,-1,-3,2,0,-3
1582297434627419,1,0,-1,0,0,-2,1,0
1582297434629354,-3,-3,-2,-1,-3,3,0,-3
1582297434629354,-2,1,1,-2,1,2,-1,-2
1582297434641375,1,-2,-2,-4,1,1,-7,1
1582297434641375,0,-1,0,3,-1,-3,5,-2
1582297434648718,0,0,0,-3,-1,-2,0,-1
1582297434648718,-2,-1,-1,-6,-12,3,1,-1
1582297434665460,-1,0,-1,6,4,-7,-2,1
1582297434665460,0,0,1,0,4,6,3,2
1582297434666931,-1,-1,-5,-5,4,-2,-4,-1
1582297434666931,-2,0,-2,1,0,1,-4,-2
1582297434687544,0,-1,-1,3,-8,-2,1,-2
1582297434687544,-2,-2,-2,-7,-5,1,1,0
1582297434689194,-1,-2,2,1,-1,-6,-5,0
1582297434689194,-1,-1,0,3,2,6,1,-1
1582297434702221,-1,-2,-2,-2,-1,0,-3,-1
1582297434702221,-3,-3,-2,6,4,-5,0,-2
1582297434709150,0,-1,0,-9,-5,8,-1,-1
1582297434709150,-1,-2,-1,2,0,-4,-1,1
1582297434725361,2,-1,0,-2,1,2,5,0
1582297434725361,1,0,0,-4,-2,-7,-1,-2
1582297434727094,-1,-1,-1,1,-4,-8,-2,-2
1582297434727094,-1,-1,-3,4,3,1,-1,-1
1582297434748037,-1,-4,-1,-5,-6,-3,-1,0
1582297434748037,0,-2,-2,-2,9,5,3,-1
1582297434749415,1,1,1,1,-7,-2,-2,-2
1582297434749415,-1,-1,0,-2,2,2,1,-1
1582297434762202,-1,-2,-2,-4,0,-2,2,-3
1582297434762202,-2,-1,-2,1,-6,-2,0,2
1582297434769179,-2,-4,-2,1,-2,-3,-1,-2
1582297434769179,0,0,0,-4,-1,-4,-3,-1
1582297434785398,-1,-1,-1,0,-1,2,-3,-1
1582297434785398,-2,-1,-2,-5,2,-6,-1,-1
1582297434786932,-1,0,-1,2,0,4,0,-1
1582297434786932,-1,-1,-1,4,0,-1,2,-1
1582297434807889,0,0,-3,-13,1,-1,1,0
1582297434807889,0,-1,0,3,-1,-1,-4,1
1582297434808881,0,1,0,0,-2,-7,-1,1
1582297434808881,-2,-3,0,-7,-8,7,4,-1
1582297434822036,-3,1,-2,5,4,-6,-10,-4
1582297434822036,-2,-1,-1,4,2,3,0,-2
1582297434828874,0,0,-1,-1,3,-3,-1,2
1582297434828874,-1,1,1,-2,-2,-3,-1,0
1582297434844904,1,-3,0,3,-4,-3,0,1
1582297434844904,0,-3,-2,-10,-8,-3,-1,-2
1582297434846921,-1,-1,0,-7,5,6,-2,1
1582297434846921,0,0,-1,-6,1,-3,-1,-1
1582297434867937,-2,-1,-1,-1,0,11,3,0
1582297434867937,-2,-1,1,6,-4,-1,-4,-1
1582297434869163,0,-1,-2,-2,-5,-3,2,-1
1582297434869163,1,-2,-1,2,1,-7,-5,-3
1582297434881708,0,-2,-1,1,-3,-5,-2,0
1582297434881708,-2,-2,-2,-4,-2,3,3,-1
1582297434890661,-1,-1,-1,2,1,0,-7,-1
1582297434890661,0,-1,-2,-3,-3,-5,-3,-1
1582297434904840,0,0,0,4,1,-9,-2,-2
1582297434904840,1,-1,0,-5,-3,7,3,-2
1582297434906611,-3,-2,-1,-2,7,-1,5,-1
1582297434906611,0,-1,0,2,-3,-1,-2,0
1582297434927557,-2,-1,1,1,1,-6,-1,-1
1582297434927557,-2,2,-1,3,-4,2,-2,-1
1582297434929602,-1,-1,-1,-4,0,-4,3,1
1582297434929602,-1,-2,-2,-4,-3,5,3,-1
1582297434941517,-1,-1,-3,-3,-4,3,-1,0
1582297434941517,0,-1,-2,-5,-1,-6,-4,0
1582297434950537,-1,0,-1,0,-6,2,-3,-1
1582297434950537,-2,-1,-1,4,1,0,1,-1
1582297434965463,-1,-1,1,-1,-3,-7,-4,0
1582297434965463,-1,0,-2,4,1,-3,-1,-1
1582297434966454,-2,-1,-3,-1,-2,0,-3,-2
1582297434966454,0,0,1,-1,-1,-4,2,-2
1582297434987555,-7,0,0,-7,-13,-3,1,-2
1582297434987555,0,0,0,3,8,-4,-3,-1
1582297434989395,1,-1,-1,6,5,3,3,0
1582297434989395,-1,0,-5,-11,-1,-1,-4,-1
1582297435001560,-1,1,-1,-4,0,-1,-1,-2
1582297435001560,-2,-1,-3,2,-9,-5,-3,0
1582297435010405,-1,-1,-1,-15,-8,-2,-1,-1
1582297435010405,1,-1,1,5,5,0,0,0
1582297435025304,-1,-1,-2,-5,0,-1,-2,-1
1582297435025304,-1,-2,0,3,2,9,1,-1
1582297435026293,0,-1,0,6,-1,-6,3,0
1582297435026293,-1,-1,-2,-4,-1,5,-7,-2
1582297435047679,-1,-1,-1,-2,1,-2,1,0
1582297435047679,-1,1,1,-4,-4,-2,1,-2
1582297435049409,-2,0,-1,0,-3,2,-1,0
1582297435049409,-3,-1,0,10,9,-8,-2,1
1582297435061645,0,-2,-2,-1,1,0,0,0
1582297435061645,-1,-2,0,-3,0,-2,-3,-1
1582297435070512,1,0,-2,-3,-9,3,0,-2
1582297435070512,-2,-2,-2,4,3,-7,-4,-2
1582297435085408,1,0,2,-5,3,7,3,-1
1582297435085408,0,-2,-1,-1,-2,3,3,0
1582297435087128,-1,0,-1,-5,-8,-11,-10,-4
1582297435087128,-1,-1,1,15,-1,4,0,1
1582297435108134,-2,-3,-1,-17,0,0,0,0
1582297435108134,0,0,-3,-5,-2,-3,-2,-1
1582297435110074,-2,-4,0,1,-1,-2,2,-2
1582297435110074,-2,-2,-1,-2,-11,-2,-4,-4
1582297435121178,0,-2,-1,12,10,5,-2,-2
1582297435121178,-1,-2,-1,-2,0,-1,1,-3
1582297435130016,-1,-2,-1,1,1,2,0,-2
1582297435130016,0,-1,-1,-9,-5,-6,-4,-2
1582297435145188,-3,-2,-1,3,-7,-1,-3,-1
1582297435145188,-2,-2,1,-1,1,0,0,0
1582297435146973,0,0,-1,-1,3,-2,1,-1
1582297435146973,0,-2,-1,-8,-4,-1,2,-3
1582297435167912,-1,-1,1,1,-5,3,0,-1
1582297435167912,-1,1,-2,7,11,0,0,-1
1582297435169055,1,-1,-2,-7,-4,-2,-4,0
1582297435169055,-1,0,-2,-5,0,-3,4,2
1582297435180934,-1,-1,-1,4,-4,-4,-3,0
1582297435180934,0,-4,-1,-6,-7,1,0,-1
1582297435190189,-3,-1,1,10,-1,-8,-8,-3
1582297435190189,-2,-3,-2,-5,3,7,4,-1
1582297435205319,0,1,-3,2,0,-2,1,-1
1582297435205319,-2,-3,-1,2,-1,-4,-1,4
1582297435206815,-3,0,0,1,0,5,5,1
1582297435206815,-1,-3,1,-8,-3,1,1,2
1582297435227889,0,2,3,8,0,-2,-1,-1
1582297435227889,3,2,1,-10,1,1,-2,-1
1582297435228751,1,1,0,5,2,2,-2,1
1582297435228751,1,0,1,2,-2,-8,-3,1
1582297435240726,1,0,0,-7,-5,10,1,1
1582297435240726,-1,-1,-1,4,7,0,-1,1
1582297435249905,1,0,1,-3,1,2,5,2
1582297435249905,-2,-1,1,-1,0,6,3,2
1582297435264862,0,1,-1,-3,-1,-14,-10,0
1582297435264862,-1,1,0,4,-4,-2,-3,0
1582297435266773,-1,0,2,1,1,2,1,1
1582297435266773,1,2,-1,-12,2,3,0,-4
1582297435287821,2,1,-2,-7,-2,2,1,-1
1582297435287821,-1,3,-1,-2,-4,0,-2,-3
1582297435289471,-3,-2,-1,1,-1,-2,-8,-2
1582297435289471,0,1,-2,4,1,-2,0,0
1582297435301665,-4,-1,-1,1,1,-6,0,0
1582297435301665,-1,0,1,-6,1,9,4,-2
1582297435310536,0,3,-1,-3,-2,-1,2,-1
1582297435310536,0,2,-1,0,-5,-6,-6,-1
1582297435325497,-1,-1,-1,3,1,-7,-4,-1
1582297435325497,-1,2,-2,1,-13,-1,-1,-1
1582297435326489,-1,-1,-1,-8,5,-3,-4,0
1582297435326489,-1,-2,-1,7,5,2,9,0
1582297435348545,-1,-2,-4,-1,2,2,-6,-1
1582297435348545,1,0,-1,5,-4,-5,-2,0
1582297435349722,-1,-1,-3,-5,-6,-1,-2,-3
1582297435349722,0,1,1,-6,-2,-4,-3,-2
1582297435370556,-1,-2,0,0,2,4,5,-2
1582297435370556,-2,-4,-3,-5,-5,3,-4,-3
1582297435371386,0,0,-1,15,3,-1,0,-1
1582297435371386,-2,-1,0,-7,2,3,-1,0
1582297435385535,0,-1,-2,-4,-1,-8,-2,0
1582297435385535,-1,-1,-1,-6,-3,-1,-2,-1
1582297435387334,-1,-1,-2,3,1,-2,1,0
1582297435387334,-1,-2,2,3,-4,5,-3,-1
1582297435407332,-1,0,1,0,-2,1,5,0
1582297435407332,0,-2,-2,-2,10,-9,-1,0
1582297435409373,1,-1,-1,-5,-3,0,-5,0
1582297435409373,-4,0,-1,4,-1,-2,-1,1
1582297435430421,0,0,-1,-1,-1,10,0,-1
1582297435430421,-2,-1,-2,2,1,-8,-7,-1
1582297435432151,-3,0,-1,-2,-4,1,2,-2
1582297435432151,-1,0,-2,-2,-3,-5,-3,-2
1582297435445394,1,0,1,-2,-1,-4,-1,-1
1582297435445394,-1,1,0,7,-1,2,3,-1
1582297435446695,0,0,0,-7,1,-3,-1,0
1582297435446695,-1,0,-2,4,-5,-3,-6,-2
1582297435467360,-1,-1,0,-1,-1,4,5,0
1582297435467360,0,-1,-1,-4,5,-1,3,-2
1582297435469106,-2,-2,-2,2,-2,0,2,-2
1582297435469106,0,1,-1,4,1,-2,-3,-3
1582297435490203,-1,-2,-1,3,-2,-7,-6,-1
1582297435490203,0,-1,-3,-5,-6,0,-2,-1
1582297435492051,1,-3,-1,-4,-5,2,1,-1
1582297435492051,-3,-2,-2,2,3,3,1,-3
1582297435504421,0,0,-3,-4,8,-1,0,-2
1582297435504421,0,1,1,-2,-2,-4,-5,0
1582297435511050,1,0,-1,-3,1,-3,-1,-2
1582297435511050,1,-3,1,-2,-6,5,4,1
1582297435527946,1,-2,-1,-2,-4,-9,-5,-2
1582297435527946,-1,1,0,-1,-1,2,2,0
1582297435529096,0,-1,0,11,6,4,5,-2
1582297435529096,1,-1,-1,-8,-3,-8,-5,0
1582297435550250,-3,-1,-1,2,1,2,5,-1
1582297435550250,-2,-1,1,-5,-4,-2,-7,1
1582297435551892,-1,0,-2,-5,-5,-5,0,-1
1582297435551892,-1,-1,0,-2,0,4,-6,-5
1582297435564910,2,-2,-1,-1,-3,-5,1,-1
1582297435564910,0,0,-2,4,4,8,4,0
1582297435571128,-1,0,-3,-6,-4,-4,-10,0
1582297435571128,0,0,-3,-2,1,-11,3,1
1582297435588192,-3,1,0,2,-14,10,-2,-1
1582297435588192,1,-2,-2,-9,5,-2,-1,-2
1582297435588786,-1,-2,-1,6,1,5,2,-1
1582297435588786,-1,-3,-2,-15,-3,-6,-2,-1
1582297435609735,0,-2,0,4,0,0,-7,-3
1582297435609735,-3,1,0,13,2,2,6,0
1582297435611725,1,-1,0,-12,0,-4,3,0
1582297435611725,-1,-1,-2,6,-2,0,-5,0
1582297435624704,0,-1,0,-3,1,-3,2,0
1582297435624704,-2,-3,-1,0,-4,-6,-4,-2
1582297435631040,-1,-2,-2,-1,1,4,-3,0
1582297435631040,-3,-2,-1,6,-2,0,-1,-2
1582297435647685,1,2,-1,-8,1,-3,-1,0
1582297435647685,1,-1,-2,-2,-3,-1,-2,-2
1582297435649064,-2,1,-1,0,-3,-1,-2,-2
1582297435649064,-1,0,-1,-1,-1,2,5,2
1582297435670628,-2,-1,-2,-2,0,-4,-6,-1
1582297435670628,0,-2,-2,-2,-4,5,-2,-3
1582297435671574,-1,0,-1,-2,-13,-7,0,0
1582297435671574,0,-1,-2,5,17,4,2,1
1582297435684676,0,0,-1,-1,-5,-3,-2,-1
1582297435684676,0,1,-2,-3,-7,-9,-2,1
1582297435691517,-1,-2,-1,5,2,5,1,-5
1582297435691517,-2,-1,-2,-4,-4,4,6,0
1582297435707655,0,-2,-1,-2,1,-3,1,-1
1582297435707655,-3,-2,-1,-1,-3,-7,-5,-1
1582297435708477,0,-4,-1,-1,-3,-3,-3,-2
1582297435708477,-2,2,0,-1,-2,-1,-2,-1
1582297435730572,-3,-2,-3,0,3,4,-1,-2
1582297435730572,-2,-2,-1,-7,-5,-2,0,-3
1582297435732170,-2,-2,-2,6,1,-2,-1,0
1582297435732170,0,0,1,-6,-3,5,2,-2
1582297435744430,0,-2,-1,-5,-5,-11,-5,-2
1582297435744430,0,-1,0,6,12,2,3,0
1582297435751549,-2,-1,-1,-5,-3,-2,3,-1
1582297435751549,0,-1,-1,1,-1,0,-11,-1
1582297435767767,-3,-1,1,9,-4,2,5,-1
1582297435767767,1,-2,2,-14,-6,-4,-1,1
1582297435769304,-1,1,-1,4,5,3,3,2
1582297435769304,1,0,0,3,-2,-2,3,0
1582297435790492,-2,0,-1,-6,2,-2,-5,0
1582297435790492,-1,1,-1,2,-1,-3,-4,-2
1582297435791263,-1,0,-1,-1,0,4,4,-2
1582297435791263,-1,-3,-1,-1,-4,1,-1,-4
1582297435804430,-1,-1,-2,0,2,-8,-1,-3
1582297435804430,1,-1,-2,0,2,1,0,-1
1582297435812187,-1,-1,0,-5,-1,4,0,1
1582297435812187,-2,-1,-2,-1,-2,-5,-2,0
1582297435827343,1,-2,-2,0,-2,-2,0,0
1582297435827343,-2,-1,-1,5,-3,0,-2,-1
1582297435827571,0,1,-1,-6,-10,-4,-6,-2
1582297435827571,-1,0,-1,4,13,11,4,-1
1582297435849289,-1,-1,-1,-6,-3,2,0,2
1582297435849289,-2,0,-2,-5,-1,-6,-6,-2
1582297435850153,-2,-2,-1,6,4,-5,-7,-2
1582297435850153,-2,-2,-2,-4,-9,-8,0,-1
1582297435864054,-1,-1,0,0,4,13,3,0
1582297435864054,-1,0,-1,6,0,1,2,2
1582297435872447,-3,-2,1,-3,-4,-2,2,0
1582297435872447,-1,-1,0,3,1,-1,-4,-2
1582297435887208,0,-2,-1,-2,3,-6,-1,-1
1582297435887208,0,-2,-3,-3,-4,6,0,-2
1582297435887986,0,-1,-1,1,0,-5,-7,-1
1582297435887986,-1,-1,-2,-2,-6,-6,-4,-1
1582297435908993,-1,0,-1,4,-1,5,6,-3
1582297435908993,0,-1,1,-5,-1,1,1,-2
1582297435909940,-1,0,-2,3,-4,-3,-1,2
1582297435909940,-2,-2,-1,5,2,9,2,0
1582297435933055,1,1,0,-8,7,-9,-3,0
1582297435933055,0,-1,-2,1,-6,-2,-3,1
1582297435933055,-2,-1,-1,1,7,5,2,0
1582297435933055,0,1,1,-1,-6,-4,-8,-3
1582297435947293,-2,0,0,1,-2,-2,-2,0
1582297435947293,0,-2,0,2,4,3,1,-2
1582297435947826,0,0,1,7,2,5,-2,-1
1582297435947826,-3,-1,-1,-10,-3,-9,7,-1
1582297435969901,-2,-3,-1,-3,0,1,-3,0
1582297435969901,1,0,-1,-5,-5,-7,0,0
1582297435969901,0,0,0,-2,0,7,1,-1
1582297435969901,0,-1,1,5,1,10,-2,0
1582297435983945,-3,-1,-2,-2,-4,-6,-4,-1
1582297435983945,-4,-3,-5,-5,-2,4,5,-3
1582297435991894,1,-1,1,7,5,-4,5,0
1582297435991894,1,-2,-2,-6,10,-7,-3,-2
1582297436006883,-1,0,2,-2,-9,2,-2,0
1582297436006883,-2,-3,-1,6,2,-1,-3,1
1582297436008066,-1,-1,0,-6,-4,-1,-2,-1
1582297436008066,-1,-3,1,1,-2,-9,1,-1
1582297436029666,0,-2,-1,-3,1,1,-1,-1
1582297436029666,-1,1,0,-1,-1,2,6,-2
1582297436029829,0,0,-3,-5,-4,1,-2,0
1582297436029829,-1,0,-3,-2,-6,-2,-4,0
1582297436043623,-1,0,-1,1,0,-3,-1,-3
1582297436043623,1,-3,0,1,-1,1,2,-2
1582297436051685,-1,-2,-1,-7,-1,1,-3,-2
1582297436051685,0,-2,0,3,-1,-1,3,2
1582297436066937,-1,1,-1,0,0,1,0,-3
1582297436066937,-2,0,-2,-3,-1,-5,0,1
1582297436067509,-1,-1,-2,2,0,-7,-6,-1
1582297436067509,-1,-2,0,-1,-3,8,3,0
1582297436089492,0,0,0,3,-3,-5,-2,0
1582297436089492,-1,0,1,1,4,0,-4,1
1582297436090537,1,-3,0,-3,-1,-3,-1,-2
1582297436090537,-1,-1,-3,-1,-3,-4,-2,-2
1582297436112579,2,-2,-1,-3,-1,4,3,1
1582297436112579,-4,-1,-3,1,6,0,-1,-2
1582297436113387,-2,-1,-2,-2,-5,-7,-4,0
1582297436113387,-2,-1,0,-3,-2,-7,-8,-2
1582297436126475,-3,-2,-2,4,-3,4,1,-2
1582297436126475,2,0,0,-3,-2,4,4,1
1582297436127344,-2,-1,-1,7,2,1,3,-1
1582297436127344,-1,1,-2,-8,-1,3,-5,0
1582297436149488,0,-1,-1,5,8,-9,-1,0
1582297436149488,-1,-3,-2,-3,-7,3,2,-2
1582297436150491,1,-2,-2,1,-1,0,-1,0
1582297436150491,0,-1,1,0,4,3,6,-1
1582297436163735,0,-3,0,1,0,-2,-10,0
1582297436163735,-2,-1,-1,-6,-3,-5,-4,-1
1582297436172227,0,-2,-2,-4,-2,-4,-2,2
1582297436172227,-2,-1,-1,2,-2,-1,0,-2
1582297436187186,1,1,0,-1,0,5,3,-3
1582297436187186,-2,-1,2,0,-5,-8,-2,-2
1582297436187367,-3,-1,-3,2,6,-1,-3,-5
1582297436187367,1,0,-2,-3,-3,4,3,0
1582297436209169,-2,-1,-1,-1,-1,-5,0,-1
1582297436209169,0,-4,-1,-1,-4,-7,-2,1
1582297436210486,1,0,0,4,-5,-1,-3,-2
1582297436210486,-1,-2,-1,2,2,0,-3,-2
1582297436225313,-3,-1,-2,-18,-4,4,2,2
1582297436225313,0,1,-1,5,9,2,2,-1
1582297436232251,0,1,2,-3,1,-5,-3,-1
1582297436232251,1,-2,0,3,-5,-11,-5,-1
1582297436247243,-2,0,-1,3,-4,1,-2,-2
1582297436247243,-2,-3,-1,-2,0,1,3,1
1582297436248023,0,-1,-2,-6,-1,3,4,-2
1582297436248023,-1,0,-1,5,-3,1,-2,1
1582297436270396,-1,-1,0,-12,-3,-2,0,-2
1582297436270396,0,1,0,-3,-1,5,0,-3
1582297436271024,-3,-2,0,-3,-2,0,0,0
1582297436271024,-1,-3,0,10,5,-11,-3,-1
1582297436292905,0,-1,1,-4,-5,8,1,-1
1582297436292905,3,1,-2,-1,4,-9,-9,0
1582297436292905,-1,-1,-3,-8,-4,-5,2,0
1582297436292905,-2,0,-1,-3,1,6,4,-1
1582297436307042,-1,-1,-1,6,-1,-9,-5,0
1582297436307042,-3,-1,0,0,-4,3,-3,0
1582297436307875,-2,0,-1,-4,-2,-3,-1,0
1582297436307875,0,-3,-1,-4,1,3,2,1
1582297436329864,-1,-1,-2,1,3,0,7,-2
1582297436329864,1,-1,-2,-2,-5,-8,-3,-1
1582297436329864,0,-1,0,-2,1,5,-3,-1
1582297436329864,-1,-2,0,-1,-1,2,0,-2
1582297436353004,-1,-1,-1,0,0,3,-1,-1
1582297436353004,-1,-1,-3,-3,-1,-8,-5,1
1582297436353004,-1,0,0,0,0,0,1,1
1582297436353004,0,0,0,-6,-3,5,3,1
1582297436366928,-1,1,0,2,0,-4,-9,-2
1582297436366928,-2,1,0,-1,-6,-2,-1,-1
1582297436367763,2,0,0,6,10,-4,3,2
1582297436367763,0,1,0,-11,-6,3,-1,0
1582297436390074,-1,-1,-2,8,-2,-5,-6,1
1582297436390074,-3,-2,0,-4,-5,2,0,-3
1582297436390074,-1,0,0,-1,0,0,-2,-1
1582297436390074,1,-1,-1,3,2,-6,-2,-3
1582297436412733,1,0,-1,-4,-3,0,5,1
1582297436412733,0,0,-2,2,-1,4,1,-3
1582297436413586,-1,-1,0,4,-2,-3,-3,-2
1582297436413586,-1,2,-1,-7,0,-4,-2,-2
1582297436426598,0,-2,-3,-1,1,7,2,0
1582297436426598,-3,-2,0,0,0,-2,-2,0
1582297436427700,-4,-2,-2,-1,-4,-1,1,-3
1582297436427700,-1,-1,-1,4,2,-7,-4,1
1582297436449718,1,-3,-1,-14,-2,-2,-1,-1
1582297436449718,-2,-1,-3,1,1,2,1,-1
1582297436450480,-2,0,-1,-4,1,2,0,-1
1582297436450480,-2,-2,-1,7,-13,-7,-4,-2
1582297436472863,-1,0,-1,-4,8,-3,-3,-2
1582297436472863,-1,-1,0,-3,-3,0,-2,-3
1582297436473423,0,-1,-1,-2,-3,-9,-1,-1
1582297436473423,0,-2,-1,1,0,15,0,1
1582297436487437,-3,0,1,4,-2,-5,2,0
1582297436487437,2,0,1,0,0,3,0,1
1582297436487437,-3,-2,-1,-2,-2,-2,-4,-2
1582297436487437,-1,0,-2,0,1,-4,0,-1
1582297436509390,1,-3,-1,3,-2,-1,0,-1
1582297436509390,-2,0,-1,-3,1,-1,-1,-1
1582297436510325,0,-2,-1,-1,-1,2,1,-1
1582297436510325,0,-2,-3,-7,5,4,-1,-1
1582297436533449,-1,-2,0,1,-2,-3,2,-4
1582297436533449,0,-3,-2,1,-1,0,-3,1
1582297436533449,0,1,-1,-5,-4,0,0,0
1582297436533449,-3,-2,-3,6,1,-1,-3,-2
1582297436547274,0,0,1,-2,-2,1,-1,0
1582297436547274,-1,-1,-1,-2,-8,-7,-2,-2
1582297436547274,-1,0,-3,2,11,3,-2,-1
1582297436547274,0,-1,1,0,-2,-1,1,1
1582297436569497,0,-1,0,1,-3,7,-2,0
1582297436569497,-1,-2,-1,-5,-2,-6,-1,-1
1582297436570221,0,-1,-1,-2,-4,7,0,-2
1582297436570221,0,0,0,-4,-2,-12,-1,0
1582297436592249,-2,-1,-1,8,3,-4,-1,0
1582297436592249,0,1,2,0,-2,3,0,0
1582297436593104,-1,-1,-2,-3,-2,5,2,-2
1582297436593104,0,2,0,-6,-3,-7,-2,-3
1582297436607068,-2,-2,-1,5,-2,-2,-3,-2
1582297436607068,-1,-1,-2,0,3,-2,-4,-2
1582297436607068,-2,-1,-2,-2,2,-5,-1,-1
1582297436607068,0,-2,0,-4,-1,6,3,0
1582297436629195,-2,0,-2,-1,-3,-9,-1,-1
1582297436629195,0,0,0,7,3,-6,1,-1
1582297436630007,-1,-1,0,-1,-12,6,-3,-1
1582297436630007,-1,-3,-1,-3,8,-5,0,0
1582297436652944,-2,1,-1,0,-2,6,0,1
1582297436652944,1,-3,-1,3,0,1,4,-1
1582297436653177,-1,-1,-2,-11,-5,-10,-4,1
1582297436653177,-2,1,-2,-2,-5,2,-3,-1
1582297436667317,-1,-2,-1,3,5,-2,1,1
1582297436667317,-2,0,1,2,1,5,1,1
1582297436667899,0,-2,0,1,-7,-6,-3,-4
1582297436667899,1,-3,0,-2,0,4,5,-1
1582297436689880,-2,-1,-3,-8,1,-6,-4,-1
1582297436689880,0,-2,-2,2,-1,2,-1,-2
1582297436689880,-2,-1,-2,-3,3,-3,2,2
1582297436689880,-2,-1,1,6,0,12,1,-2
1582297436712966,0,0,-1,-5,-4,-1,-2,-3
1582297436712966,0,0,-2,-3,3,1,1,-1
1582297436713777,0,-2,0,3,1,-5,-3,0
1582297436713777,0,-1,-1,-3,-9,-6,-2,-4
1582297436727060,0,0,-1,0,9,5,5,0
1582297436727060,-3,-2,1,1,-3,-2,-6,0
1582297436727746,-1,0,1,4,3,-2,3,0
1582297436727746,-2,0,-3,-3,-1,1,-2,0
1582297436749884,1,-1,-2,-3,-2,-1,-2,-3
1582297436749884,0,0,0,-5,-3,-9,-5,2
1582297436749884,-1,-2,0,1,2,11,4,-1
1582297436749884,2,-3,-3,0,-4,-1,2,0
1582297436773178,-1,-3,0,-2,-8,-8,-4,-2
1582297436773178,0,1,1,0,2,0,1,-3
1582297436773617,1,0,-2,3,-2,1,-2,-2
1582297436773617,-1,-1,-1,1,2,-5,-3,2
1582297436786788,3,-1,0,-1,-1,4,1,2
1582297436786788,0,-2,-2,2,-2,-3,0,-1
1582297436787596,-1,-3,-3,-4,0,0,-1,-2
1582297436787596,-1,0,0,-3,5,1,2,0
1582297436809579,-1,-1,-1,-2,-13,-9,-1,-1
1582297436809579,-1,-1,-1,1,8,2,-2,1
1582297436810519,-1,0,1,-1,-3,-1,-4,2
1582297436810519,-1,-3,0,-1,-3,-1,-5,-3
1582297436832681,0,0,0,4,-3,-1,2,-3
1582297436832681,-2,-3,-4,-12,-4,5,1,-1
1582297436833521,-2,-1,-3,1,4,4,3,-1
1582297436833521,-2,1,-2,-12,-2,-3,-5,-1
1582297436846924,-2,0,-1,4,-2,-4,-3,-1
1582297436846924,-2,0,-1,-5,-3,1,-1,-1
1582297436847421,0,2,1,0,2,-3,-1,0
1582297436847421,-1,-1,-1,11,-3,-4,-1,-2
1582297436869554,-3,-2,-2,-8,5,2,-2,-1
1582297436869554,-1,0,-1,-6,0,2,-2,-2
1582297436870418,0,-2,-1,-1,-3,-4,-2,1
1582297436870418,-1,1,-2,0,-3,4,0,-1
1582297436892301,-2,-1,-1,1,-10,2,7,-3
1582297436892301,1,0,0,5,9,-4,-9,-2
1582297436893295,-1,0,-3,-5,-6,0,-5,-3
1582297436893295,1,0,-1,-4,0,0,0,0
1582297436906423,1,0,0,0,3,9,2,2
1582297436906423,-1,0,-3,2,-6,0,11,-1
1582297436914398,-2,-2,-1,2,2,-14,-6,-2
1582297436914398,-2,-3,-1,-2,-1,-1,-3,0
1582297436929386,-1,-1,-1,-4,1,-3,-3,-1
1582297436929386,-1,-1,1,3,-1,4,-1,-2
1582297436930201,-1,-1,-1,-2,-3,-5,0,-1
1582297436930201,0,0,-1,2,4,0,-1,-2
1582297436953136,0,0,0,1,1,-8,-1,0
1582297436953136,0,-1,-2,1,0,7,4,-2
1582297436953136,-2,-1,0,-2,-5,-3,-3,-1
1582297436953136,-1,0,0,-4,-3,-4,0,0
1582297436966236,-1,0,-1,6,1,5,-5,-1
1582297436966236,-1,-2,-2,-3,-1,-10,-1,0
1582297436974090,-1,-1,-2,-6,-3,-1,-2,-1
1582297436974090,-1,-2,0,0,-1,2,-1,-2
1582297436989311,1,0,0,3,1,4,2,-2
1582297436989311,-1,-2,0,-7,-9,-8,0,0
1582297436990037,0,-4,1,0,7,8,-1,1
1582297436990037,1,0,-2,1,6,-10,-1,1
1582297437013034,-2,0,-1,-2,-3,-9,-5,-2
1582297437013034,0,1,0,12,2,13,2,-1
1582297437013326,0,1,-2,-8,-1,2,3,0
1582297437013326,1,-2,-1,-7,3,2,-3,1
1582297437026235,0,-1,1,-3,0,-3,2,0
1582297437026235,1,-1,1,-1,-8,-6,-4,-1
1582297437034976,-2,1,1,11,-1,-5,-2,-3
1582297437034976,-2,-1,-3,0,-1,7,1,-1
1582297437049888,1,-2,-1,-6,-2,-4,0,-1
1582297437049888,-1,1,-1,-5,-1,-2,-4,1
1582297437050096,-2,-2,-1,-3,-2,-3,-1,-1
1582297437050096,-2,0,0,1,-2,-2,-3,-3
1582297437073016,-2,-2,-1,-2,-2,1,0,0
1582297437073016,0,1,-1,1,3,0,3,0
1582297437073016,1,0,-2,-1,-1,0,1,-1
1582297437073016,-2,1,0,0,-15,-8,-10,-1
1582297437085980,0,-2,-2,6,12,4,0,-2
1582297437085980,-2,0,-2,-10,-2,3,2,0
1582297437095124,-1,-1,-1,0,0,3,6,-1
1582297437095124,-3,-1,1,-1,-4,-1,3,-1
1582297437109987,0,0,-1,-1,-7,-6,-5,1
1582297437109987,0,-3,0,3,4,-2,-2,-1
1582297437110782,-1,-1,-2,3,-2,7,0,-1
1582297437110782,0,-1,0,1,-1,-3,2,0
1582297437132794,-4,-1,-1,-9,-1,2,0,0
1582297437132794,-1,-1,-1,-7,1,0,0,-1
1582297437133653,1,-3,1,3,-4,-7,-2,-1
1582297437133653,-1,-1,-1,-4,3,8,-1,-2
1582297437146677,-1,0,-2,0,4,1,-1,-3
1582297437146677,1,-1,-1,3,0,-5,-2,0
1582297437154803,-1,0,-2,-3,-5,0,-1,-1
1582297437154803,1,0,-2,4,-9,-6,-1,1
1582297437169758,-2,-2,-2,-3,4,-2,0,-1
1582297437169758,-3,-2,-2,-7,-6,3,0,-1
1582297437170562,-3,0,0,0,5,-1,0,-1
1582297437170562,-3,0,-1,-3,2,-4,-2,-2
1582297437192496,-1,0,-2,3,-7,1,-3,0
1582297437192496,-1,-3,-2,-2,-1,-8,-1,-3
1582297437193497,0,0,0,-6,4,5,-4,-1
1582297437193497,2,-3,-1,-2,-2,-5,0,1
1582297437215435,-1,0,-1,1,-1,0,5,-1
1582297437215435,-3,-2,-2,3,1,6,-3,-1
1582297437215561,1,-2,-2,-6,-3,-2,-1,0
1582297437215561,-3,-3,0,-1,5,-4,-5,-4
1582297437229572,0,-1,1,1,-3,-5,-3,-3
1582297437229572,-2,0,-2,-1,-2,-2,0,-1
1582297437230394,0,-1,-2,-3,-5,-1,1,0
1582297437230394,0,-1,-1,9,-3,1,3,1
1582297437252504,0,-2,-1,-4,9,0,-2,-1
1582297437252504,-1,0,2,-3,-5,-2,-5,-1
1582297437253543,-3,-1,-2,-1,-2,-4,-1,-2
1582297437253543,-2,-2,-1,0,-2,-5,-2,-2
1582297437275278,0,0,0,4,-4,4,1,-1
1582297437275278,0,-2,-2,-4,1,-5,-5,0
1582297437275278,-1,0,-1,-6,0,9,2,-2
1582297437275278,-2,-1,-3,-1,-2,-2,0,1
1582297437289698,-1,-2,-1,0,-3,4,0,0
1582297437289698,-1,0,-1,3,-1,-5,-3,-1
1582297437290281,-1,-2,2,3,5,-6,-2,-1
1582297437290281,-1,0,0,-1,0,-2,-3,-1
1582297437312670,-1,-1,-1,3,-1,0,1,1
1582297437312670,-3,-2,-3,-7,5,0,-2,-2
1582297437313177,-1,-1,-1,-1,-4,-4,-1,-1
1582297437313177,-1,-3,-1,-1,0,-2,2,-1
1582297437335118,-3,0,2,1,-3,-3,1,0
1582297437335118,1,-1,-1,-1,-3,0,6,0
1582297437336119,0,-1,-1,0,-9,2,-6,-1
1582297437336119,-1,0,-1,0,13,0,-1,-5
1582297437349287,-1,-1,-2,-4,-8,-1,-5,1
1582297437349287,0,-3,1,2,-1,0,4,-1
1582297437350078,-3,-1,-2,-8,2,-3,-4,-1
1582297437350078,1,-1,0,-1,-2,10,3,1
1582297437373074,-1,-1,-1,0,-2,-8,-8,-2
1582297437373074,-2,-1,1,3,-1,2,-3,0
1582297437373074,0,0,1,4,-4,-5,2,1
1582297437373074,-2,0,-2,-3,-2,-7,-4,-1
1582297437395160,0,-1,-1,-3,2,4,3,-1
1582297437395160,1,0,-1,-3,-4,-2,-4,-1
1582297437395951,1,-2,-1,0,4,3,1,-1
1582297437395951,-1,-1,0,7,-2,1,3,0
1582297437409915,1,0,-1,-13,-1,-5,0,0
1582297437409915,-1,-1,0,2,-2,-1,0,0
1582297437409915,-3,-3,-3,1,-1,7,-1,-1
1582297437409915,-1,-1,-1,-2,-1,0,1,0
1582297437433038,1,-1,1,4,1,-6,-1,0
1582297437433038,-1,-1,-2,6,6,5,-2,2
1582297437434065,-2,-3,-3,-3,7,-8,1,2
1582297437434065,1,-2,0,-2,-7,-2,-9,-2
1582297437455003,-3,0,-1,0,-4,1,1,-1
1582297437455003,0,-3,1,-2,-7,-5,0,-1
1582297437456793,1,-3,1,-2,2,4,1,1
1582297437456793,0,-2,-2,2,2,3,5,1
1582297437468966,-3,0,-1,-6,-3,5,-2,-3
1582297437468966,-2,1,-2,-1,2,-2,-3,0
1582297437477801,0,1,0,3,-5,-10,-4,-3
1582297437477801,3,-1,1,-1,0,5,0,0
1582297437492694,-1,-2,-2,-6,-2,-1,-2,1
1582297437492694,-2,0,0,-3,-3,-2,2,1
1582297437493826,0,0,-2,-1,0,-2,-1,1
1582297437493826,-1,1,1,1,0,-5,0,0
1582297437515039,0,-2,-1,4,0,3,-1,-5
1582297437515039,0,-3,-3,-2,-3,-8,-8,-2
1582297437516630,-1,-2,0,-4,-8,1,1,-3
1582297437516630,-1,1,-1,-2,-4,0,2,-2
1582297437528648,-1,0,0,2,12,-2,-1,1
1582297437528648,-1,1,1,1,-1,0,0,-2
1582297437537580,-1,-1,-4,-7,-6,3,2,0
1582297437537580,-2,-1,-2,-4,1,-3,-5,0
1582297437552741,0,-2,-3,-1,-6,0,5,-1
1582297437552741,0,-1,0,-5,-3,-2,-8,-3
1582297437554536,-3,-2,3,6,1,3,1,3
1582297437554536,0,-1,-3,-5,0,-4,4,-1
1582297437575470,0,0,1,1,-2,-4,-6,2
1582297437575470,-1,0,-2,8,0,1,4,-1
1582297437576467,-2,-2,-2,-13,-4,3,-1,-3
1582297437576467,-3,-1,0,-4,2,5,0,0
1582297437589661,-1,0,0,2,-1,-2,-2,-1
1582297437589661,0,-1,-1,5,-3,-1,1,-2
1582297437596765,-1,1,-2,4,0,-8,-3,-2
1582297437596765,-1,0,0,-6,-7,-4,0,-1
1582297437612559,0,-2,-2,7,5,1,-4,-3
1582297437612559,0,-1,-1,-3,9,8,9,0
1582297437614371,0,0,-1,0,-2,-7,-14,-2
1582297437614371,-2,0,-1,2,-1,-1,-1,-2
1582297437635485,0,-1,-2,-4,-13,-7,-3,-3
1582297437635485,-1,-2,-1,-8,6,9,1,-3
1582297437636896,-1,-1,-3,-7,5,-1,4,1
1582297437636896,-1,-2,-2,2,-2,3,-2,2
1582297437649329,-2,1,-1,7,5,-1,1,-1
1582297437649329,-1,0,-1,0,-4,-9,-3,-3
1582297437663420,-1,0,1,-5,-2,6,2,-2
1582297437663420,-2,-2,0,0,-3,-4,-2,-1
1582297437672418,-2,0,-1,-4,-4,2,2,0
1582297437672418,-1,-1,-3,-1,-2,-1,-7,0
1582297437674215,-3,-1,-1,8,-3,0,0,0
1582297437674215,1,-2,-1,-3,3,-1,3,0
1582297437695358,-1,-3,-2,-5,-2,1,-3,0
1582297437695358,0,0,-1,3,-13,-11,-2,0
1582297437696154,0,-1,0,1,6,7,2,-1
1582297437696154,-1,-2,-1,-4,8,-1,0,-1
1582297437709146,0,1,-1,-1,-4,-10,1,-2
1582297437709146,-3,-1,-1,-5,-3,13,1,-1
1582297437716559,-1,-1,-3,-3,-6,-13,-1,0
1582297437716559,-2,-1,-2,-2,-2,5,-4,0
1582297437733314,-1,-1,-3,3,4,-1,-2,-2
1582297437733314,-2,0,1,-7,-2,-6,0,-1
1582297437734052,1,-2,2,11,0,-1,-4,1
1582297437734052,-1,0,0,-3,-3,-3,-2,-2
1582297437755221,-1,0,-1,-9,-2,0,-1,-2
1582297437755221,0,0,0,5,4,4,3,1
1582297437756993,1,-1,-2,-2,-1,-1,-1,-2
1582297437756993,0,0,-2,-1,-7,-5,-4,0
1582297437769171,-2,0,-1,-5,0,3,-2,2
1582297437769171,-3,-2,1,3,3,-3,1,-3
1582297437777987,0,-1,2,3,2,1,1,-2
1582297437777987,0,0,-2,-10,-1,0,1,-2
1582297437792890,-1,-1,0,0,-6,0,-6,2
1582297437792890,-2,-2,-5,4,0,1,0,0
1582297437794034,-2,-1,-2,-8,5,-4,-4,0
1582297437794034,-3,1,1,4,-3,5,4,-2
1582297437814829,0,-2,-2,6,0,-9,5,0
1582297437814829,0,-1,-1,1,-3,3,-4,-1
1582297437816834,-1,0,1,-9,1,2,-2,-1
1582297437816834,-1,0,-1,-2,-12,-6,-1,1
1582297437828933,-3,1,-1,0,10,8,0,-1
1582297437828933,0,0,-1,-2,-4,3,1,-1
1582297437838042,1,-1,-2,3,-6,-1,-1,1
1582297437838042,0,-1,-1,0,2,-6,-5,1
1582297437852923,-1,-2,-1,-4,-5,-2,2,0
1582297437852923,-1,-2,0,5,0,-4,-4,0
1582297437854116,-2,-1,-2,-5,-4,5,-1,-3
1582297437854116,0,-1,-3,2,2,7,9,-1
1582297437874672,0,-2,-2,-4,8,-12,0,-3
1582297437874672,-1,0,0,-3,1,5,-4,2
1582297437881657,1,-2,-1,3,-3,-4,-5,-1
1582297437881657,0,-1,1,2,-2,0,-6,0
1582297437888837,1,0,-2,1,-3,6,1,-1
1582297437888837,-2,-1,-2,-7,-2,-11,-2,0
1582297437897610,-1,-1,-1,2,-3,1,4,-1
1582297437897610,-2,0,0,-5,-8,0,0,-1
1582297437912627,1,-2,0,-6,3,-3,-1,-3
1582297437912627,-2,-4,-4,-3,6,8,4,2
1582297437914569,0,-1,0,3,10,-17,-8,-1
1582297437914569,0,-2,1,4,5,9,0,-2
1582297437935570,0,-1,0,3,-8,3,5,1
1582297437935570,-1,-1,0,-10,-10,-7,-2,-2
1582297437936513,-1,0,-3,5,-7,-5,2,0
1582297437936513,0,-1,-2,-6,5,2,-1,1
1582297437948676,-1,0,-2,1,-4,-1,-6,-2
1582297437948676,1,0,-1,2,-2,-3,-4,-4
1582297437957640,-1,0,-1,1,-5,4,4,0
1582297437957640,0,0,-2,9,2,-5,-7,-3
1582297437972411,-1,-1,0,-7,-1,8,3,1
1582297437972411,-1,-2,-1,0,-4,-21,-9,-6
1582297437978602,0,2,3,-4,0,11,4,3
1582297437978602,-1,-2,-2,-3,-1,-4,0,-3
1582297437995412,0,0,0,-2,-3,-1,-3,-1
1582297437995412,-1,-2,0,4,-1,1,4,1
1582297437996582,-3,-2,-1,-12,-4,-4,-5,-3
1582297437996582,-1,-2,-4,1,16,2,0,0
1582297438008311,-2,-2,-3,-2,-2,-2,4,-2
1582297438008311,0,0,0,0,-2,1,-4,-3
1582297438017452,0,-2,-1,10,-9,0,1,-3
1582297438017452,-3,1,0,-16,-12,0,-5,-2
1582297438032311,0,-4,0,-2,3,-14,-8,-3
1582297438032311,0,0,-3,-3,12,-11,3,1
1582297438039278,-2,0,-1,-1,-11,14,-1,-2
1582297438039278,0,1,-1,9,2,-2,5,0
1582297438055460,0,1,1,-2,-4,-5,-2,2
1582297438055460,-3,0,0,-1,-6,12,1,-5
1582297438056680,-3,-1,-3,-5,2,-12,-2,3
1582297438056680,-2,-1,-1,4,8,9,-5,-5
1582297438069209,-2,-2,-3,4,-9,-3,-8,-3
1582297438069209,0,-3,-2,-10,7,1,5,-1
1582297438077653,0,1,0,9,7,15,2,5
1582297438077653,2,0,0,-6,-10,-12,-3,0
1582297438092093,-2,0,0,5,2,8,-2,-1
1582297438092093,0,-1,-3,2,-1,-7,-2,0
1582297438099094,-1,-2,0,-3,2,9,2,-2
1582297438099094,0,-3,-2,-4,-1,-9,0,0
1582297438115342,0,-1,-2,7,-2,5,-1,-2
1582297438115342,0,0,0,-11,-10,-5,-11,-3
1582297438117023,1,-1,0,-4,7,-9,2,3
1582297438117023,-1,-1,0,6,0,-5,0,-1
1582297438129373,-3,-1,-1,0,-2,8,4,2
1582297438129373,-2,-1,0,8,-2,-5,-6,3
1582297438138030,-2,-1,-3,-10,-3,-6,-2,-5
1582297438138030,-2,-2,-2,-4,-4,-6,0,1
1582297438160068,-1,-2,-2,-3,8,0,-6,-2
1582297438160068,-1,0,-1,3,-6,4,7,3
1582297438161913,2,-1,-2,3,10,4,-2,-3
1582297438161913,-1,0,-1,0,-4,-21,-4,0
1582297438175053,-1,0,-1,-7,-5,3,3,0
1582297438175053,0,1,1,0,-2,1,-2,0
1582297438176959,-2,0,-2,8,0,-5,1,-2
1582297438176959,-1,-2,0,-7,15,9,-1,-3
1582297438198003,-3,0,-2,0,-4,0,2,0
1582297438198003,1,-2,-3,-10,7,-27,-4,-2
1582297438199072,-1,0,-1,-2,-26,18,-1,-3
1582297438199072,-1,-1,0,7,-6,4,0,1
1582297438211774,-1,-1,1,-2,3,-3,-2,2
1582297438211774,0,1,0,-3,0,8,-1,2
1582297438218888,3,0,-2,13,6,-2,1,-2
1582297438218888,-4,-3,-3,-16,-4,8,3,0
1582297438234980,1,-1,-1,3,1,-7,-2,-1
1582297438234980,-4,0,-2,4,0,-3,-1,2
1582297438236702,-1,-1,2,-3,-2,0,-5,-5
1582297438236702,0,-2,0,2,-1,7,-7,-1
1582297438257649,0,-1,-1,-2,0,-8,-1,-3
1582297438257649,-2,0,-2,-1,-3,4,1,0
1582297438258646,-1,-2,0,-6,-5,-9,-2,1
1582297438258646,-2,0,-1,5,5,1,2,-2
1582297438272774,0,-2,0,2,-2,-1,0,1
1582297438272774,-1,-2,-2,-9,-1,4,-1,-3
1582297438274600,-3,1,-2,1,1,-5,-4,0
1582297438274600,0,-1,-2,-3,-5,3,3,-2
1582297438294702,0,2,-1,-1,8,1,-4,-2
1582297438294702,-1,-2,-1,0,-22,9,1,1
1582297438296575,-2,-2,-2,-5,22,-10,-6,0
1582297438296575,0,-2,-1,-1,-10,-3,-1,0
1582297438317651,0,0,0,7,-3,-3,-5,0
1582297438317651,0,0,1,-2,5,0,-1,-1
1582297438319480,-2,-1,-2,-7,-8,4,5,-3
1582297438319480,-1,0,0,1,0,-12,-3,-2
1582297438332001,0,-1,-1,-4,-4,6,0,0
1582297438332001,0,-2,-1,2,2,-3,0,-2
1582297438338882,-2,-2,-1,-4,-5,-8,-3,1
1582297438338882,-1,1,-1,1,5,9,-2,-3
1582297438355568,-1,0,-2,-1,3,0,8,-2
1582297438355568,-1,1,-2,8,-1,-3,-2,-2
1582297438356686,0,-2,-1,-1,3,2,3,1
1582297438356686,-1,-3,0,-8,-7,-1,-4,2
1582297438377823,-3,-1,0,-1,0,-5,-5,-4
1582297438377823,-3,-2,-4,-7,6,6,1,-1
1582297438379320,-1,-1,1,3,-10,-11,2,0
1582297438379320,0,-1,-1,3,-3,-7,-1,1
1582297438391286,0,-2,0,-5,-4,4,-2,-2
1582297438391286,0,0,-2,1,7,2,2,1
1582297438398315,0,-1,-3,-6,-12,3,1,0
1582297438398315,2,1,1,6,10,1,2,1
1582297438415290,-1,-2,-3,1,3,-2,-5,1
1582297438415290,-2,-2,-1,-4,-1,-1,1,-1
1582297438416222,-1,-1,-3,-1,-1,-5,-1,-1
1582297438416222,-1,0,0,-1,-4,-1,-2,-1
1582297438437371,-3,-1,-2,-5,-9,-5,0,-1
1582297438437371,1,-1,1,0,-4,1,1,-3
1582297438439204,-2,-2,1,7,4,-2,2,-2
1582297438439204,-3,-1,-2,8,-3,-7,-7,-3
1582297438452332,-1,-1,0,-7,8,3,2,0
1582297438452332,-1,-1,-1,-6,-6,-17,-4,1
1582297438459125,-3,-3,-2,-5,2,22,3,-1
1582297438459125,0,-1,1,4,4,0,1,-1
1582297438475217,-3,-3,0,7,-12,13,-1,0
1582297438475217,2,-1,0,-6,4,-13,-2,0
1582297438476686,0,1,-1,6,5,-4,-4,-1
1582297438476686,-2,-2,-3,-7,-6,-5,1,1
1582297438498004,-2,-2,-1,-4,-3,5,0,-3
1582297438498004,1,0,1,2,-1,3,1,-2
1582297438498999,1,0,1,-3,0,-7,-3,-2
1582297438498999,-3,0,-1,-6,-1,8,-3,-1
1582297438512017,-1,1,-1,2,-1,-12,-1,1
1582297438512017,-1,1,0,-3,-5,7,-6,0
1582297438518955,0,-1,-3,-8,13,1,0,0
1582297438518955,1,-1,-1,0,-9,1,3,-1
1582297438535099,-1,0,-1,1,-11,-9,-6,-1
1582297438535099,-1,0,-1,9,6,4,1,0
1582297438536897,-2,-2,-3,-12,-3,0,3,-2
1582297438536897,-1,-1,-3,-5,0,-2,-2,-3
1582297438557892,1,-2,-2,-3,3,-7,-5,0
1582297438557892,-3,-4,0,3,-6,11,1,0
1582297438559110,1,-1,0,5,-8,-9,-4,-1
1582297438559110,-1,-3,0,-7,3,0,0,-1
1582297438572015,0,-1,-2,2,-10,-14,-2,1
1582297438572015,-2,-2,-2,0,15,3,-1,-2
1582297438578943,-1,-2,2,9,-1,0,-2,1
1582297438578943,-1,1,-2,-5,-3,-2,0,1
1582297438594882,-1,-1,-2,-8,0,0,0,-1
1582297438594882,2,0,-3,4,-2,2,2,0
1582297438596802,1,-1,-4,-6,-7,-4,-1,-3
1582297438596802,0,-2,-2,3,1,-3,-1,0
1582297438617752,-1,-1,0,-4,4,15,1,-1
1582297438617752,-3,-1,-5,-8,-8,-19,-2,0
1582297438619268,0,-1,2,3,6,-5,-4,-1
1582297438619268,-1,2,2,7,-1,6,2,-1
1582297438632153,0,1,1,1,4,-1,0,-2
1582297438632153,0,-2,1,-2,-8,-3,-1,0
1582297438638843,-2,-2,-5,-9,-1,6,-4,-2
1582297438638843,-1,-2,-2,-1,3,-8,2,1
1582297438655633,-1,-2,0,-1,-12,-5,3,-1
1582297438655633,-2,-1,1,-1,18,10,-2,-4
1582297438657052,-1,0,0,3,-7,-14,-2,0
1582297438657052,-2,-1,-1,-4,-4,-6,0,-1
1582297438677747,1,0,-5,-5,2,14,-2,1
1582297438677747,1,-2,6,16,-6,-11,-2,-2
1582297438679516,-3,0,2,3,-3,-2,1,1
1582297438679516,-1,0,0,-1,0,1,-4,-1
1582297438691484,-3,-2,-1,-7,-1,6,-3,-1
1582297438691484,-3,-2,-5,-3,-4,0,-2,0
1582297438700523,-1,-1,-1,-5,1,9,-1,0
1582297438700523,0,-1,1,4,2,-6,-1,-2
1582297438715592,-3,-2,-1,-1,3,-4,0,1
1582297438715592,-1,-4,-1,-4,8,9,0,-1
1582297438716426,-2,-1,-1,-3,-19,-20,-1,-1
1582297438716426,-1,-1,-4,0,0,9,-2,0
1582297438737521,0,1,0,1,1,-7,0,0
1582297438737521,0,1,0,-1,3,3,0,-1
1582297438739361,0,1,-2,-2,-9,-2,-1,2
1582297438739361,-2,-1,0,1,0,9,0,-3
1582297438751543,0,0,-1,2,0,-10,-5,0
1582297438751543,1,-1,-1,-1,-6,-1,0,1
1582297438760338,-2,-2,-1,-7,6,-5,-1,-2
1582297438760338,-2,-1,-2,2,-11,11,0,-2
1582297438775312,0,0,0,3,14,5,2,-1
1582297438775312,-3,-2,-5,-7,-4,-2,-2,-2
1582297438776339,-1,-4,0,-7,3,4,0,-2
1582297438776339,0,0,2,8,-3,-5,-2,1
1582297438798261,-1,-1,-1,3,-3,-2,0,-2
1582297438798261,2,-1,-2,-1,-3,-4,-3,-1
1582297438800206,-2,-1,-6,-8,-1,2,0,-3
1582297438800206,-2,-4,1,-5,0,-5,0,0
1582297438811413,-2,-2,1,9,0,-2,0,-2
1582297438811413,-1,2,-1,-2,-2,1,-4,-1
1582297438820197,0,-2,-2,-4,-3,1,-4,1
1582297438820197,2,2,-6,-9,2,-1,0,-1
1582297438835312,-1,-2,0,2,7,2,0,0
1582297438835312,-1,-1,2,13,-1,-1,1,-1
1582297438837094,1,0,-1,5,2,1,-1,-2
1582297438837094,-1,-2,-3,-4,-1,-2,-2,3
1582297438857244,0,0,-1,-12,-6,-4,-1,-2
1582297438857244,-1,-1,-3,-3,-3,-6,-2,-2
1582297438859078,2,1,0,2,0,4,0,0
1582297438859078,-2,-3,0,-5,-1,-1,1,-3
1582297438871197,-3,0,1,5,-3,0,1,0
1582297438871197,-3,-2,-1,0,-3,-4,-3,-2
1582297438879988,-1,0,-1,2,0,0,0,0
1582297438879988,-1,-2,-2,-4,1,-1,-2,0
1582297438895425,0,0,-1,-1,-1,-2,-1,-1
1582297438895425,-1,-2,-3,-7,-1,3,2,0
1582297438896936,-2,-2,1,-7,-3,-4,-2,-1
1582297438896936,1,0,5,19,3,-2,-5,0
1582297438918016,-2,0,-2,1,-4,3,1,0
1582297438918016,0,-1,1,-3,0,0,0,0
1582297438918888,-2,0,-3,-2,-1,-1,-1,-2
1582297438918888,0,-1,0,-9,-3,-8,-3,-2
1582297438930845,1,-1,0,-5,-1,-4,-1,-1
1582297438930845,-1,-3,-2,-5,-4,15,2,1
1582297438940145,-3,-1,5,24,6,-10,-2,0
1582297438940145,-3,-2,-3,-4,-6,-2,0,-1
1582297438954934,0,-1,-2,-1,8,-1,-3,-2
1582297438954934,0,-1,-1,-7,-4,-2,-2,-1
1582297438960819,-1,-1,-4,-5,0,1,-1,-1
1582297438960819,-2,-1,-3,2,1,3,1,-1
1582297438977920,-1,-3,-2,-7,-8,-1,-2,-1
1582297438977920,-2,0,0,-1,2,-7,2,-1
1582297438979010,1,-1,-1,-1,2,-1,0,0
1582297438979010,-3,0,-2,0,-3,-6,-5,-1
1582297438991987,-1,-2,-2,-5,0,4,-4,-1
1582297438991987,0,1,1,1,0,0,1,0
1582297438999855,2,0,1,2,0,1,0,-1
1582297438999855,-1,0,-4,-5,-2,2,1,0
1582297439014807,-1,1,-1,-1,-1,-4,1,1
1582297439014807,-1,0,-2,1,-7,1,-2,-2
1582297439021602,0,-1,1,1,13,-2,-2,0
1582297439021602,0,-1,0,4,3,-2,-1,0
1582297439037766,-3,-1,-2,-11,-5,-6,-1,-2
1582297439037766,-1,-1,3,8,5,-3,-2,-2
1582297439039133,-3,-1,-5,-6,-12,10,1,0
1582297439039133,0,0,0,4,3,-4,-3,-2
1582297439051526,-1,0,-2,3,-3,-7,-2,1
1582297439051526,1,-2,-2,-11,-2,-8,-1,-2
1582297439060532,-3,-1,-3,-3,-1,2,0,-3
1582297439060532,-1,0,0,-1,4,1,0,0
1582297439074721,-4,-1,-3,-5,-5,7,1,1
1582297439074721,-1,1,2,4,3,-11,-1,-2
1582297439081508,-1,-1,0,4,1,14,-2,2
1582297439081508,2,-1,2,7,-3,-1,-2,-2
1582297439097863,-2,-2,-1,1,7,0,-2,-2
1582297439097863,7,1,0,0,-2,-7,0,0
1582297439099395,-6,-3,-1,-2,-6,5,0,-3
1582297439099395,-5,1,-3,-8,-2,-3,1,1
1582297439111406,7,-3,-2,1,2,7,1,-2
1582297439111406,-5,-1,-2,-1,-7,-3,-1,-3
1582297439120568,1,0,0,-3,1,-7,-2,0
1582297439120568,-1,-2,-1,-1,7,-3,-1,-3
1582297439135354,-2,-2,1,2,-3,11,1,-2
1582297439135354,2,0,-2,-2,0,3,1,1
1582297439136294,1,-2,0,0,-6,-5,0,5
1582297439136294,-10,-2,1,-3,-4,1,-3,-26
1582297439157518,-4,-1,-2,1,-1,-7,-1,3
1582297439157518,2,-2,-1,-1,-1,2,-4,-5
1582297439159232,0,-2,-2,-3,-2,5,0,0
1582297439159232,5,-2,-3,-1,-5,-20,0,4
1582297439180389,1,1,-2,-3,-1,22,0,-8
1582297439180389,-6,-3,-2,-2,-6,-3,0,1
1582297439181773,-16,-2,-1,0,10,3,2,-3
1582297439181773,8,-2,-1,-3,-15,7,-1,5
1582297439195256,0,1,-1,-4,-5,-25,-1,3
1582297439195256,-6,-1,-3,-7,1,10,0,-7
1582297439196141,5,-1,2,6,-2,5,-4,1
1582297439196141,-5,1,1,5,0,8,2,6
1582297439217295,1,-2,1,3,4,-3,-2,-1
1582297439217295,1,1,-1,-5,1,-1,-2,-6
1582297439219188,-4,-1,-3,0,-4,-12,0,-12
1582297439219188,-7,-3,-2,-4,3,6,1,-5
1582297439240029,-2,-3,-1,-2,-4,-7,-1,7
1582297439240029,0,2,-2,1,3,-1,-3,-9
1582297439242011,8,2,-1,-4,-8,-2,0,15
1582297439242011,-1,0,-1,0,2,-6,2,2
1582297439254201,-4,1,-1,-1,-3,11,-3,-15
1582297439254201,20,-1,0,0,-12,-19,-1,7
1582297439260959,-20,0,-1,-1,8,0,0,4
1582297439260959,-17,-6,-4,-3,0,-2,-2,3
1582297439277964,-5,1,3,9,9,-12,-2,-20
1582297439277964,-3,-2,0,3,-2,-4,-3,2
1582297439279237,10,0,-1,-8,-4,3,-4,-3
1582297439279237,9,1,-2,-4,-6,-16,-1,14
1582297439300261,-5,0,0,12,3,-7,1,6
1582297439300261,-3,-2,-2,3,9,4,0,-5
1582297439301896,5,1,2,0,-12,0,0,9
1582297439301896,-3,0,-1,-7,0,1,-1,-2
1582297439314815,3,-2,-3,-6,-6,-7,-5,-1
1582297439314815,-10,-1,0,5,1,16,3,2
1582297439321005,-4,-1,-3,-4,3,-11,-5,-10
1582297439321005,-4,0,0,-3,-18,-20,-5,-14
1582297439337951,18,-4,-3,-7,5,12,1,32
1582297439337951,-16,2,1,4,3,7,-3,1
1582297439339134,0,-7,-2,-2,-6,5,2,-2
1582297439339134,15,1,0,4,4,-1,-3,-14
1582297439360145,-13,1,-2,-4,-2,-5,0,-4
1582297439360145,-10,-4,-2,-6,-5,0,-1,8
1582297439361694,5,-1,-1,2,6,-14,-2,-2
1582297439361694,-1,1,-1,1,0,20,2,-1
1582297439373892,13,0,-1,-1,-5,0,-1,-3
1582297439373892,-10,-2,-2,-3,0,1,2,5
1582297439382844,5,1,0,2,-1,-1,0,0
1582297439382844,-4,-4,1,-2,18,0,1,3
1582297439397804,0,-2,-1,-5,-26,29,-6,-7
1582297439397804,0,1,0,9,-4,14,0,-1
1582297439399591,6,-1,-2,-2,9,-1,-1,-2
1582297439399591,5,-1,-3,-1,-2,0,1,9
1582297439420598,-18,-1,1,-5,4,-6,-4,-24
1582297439420598,6,-1,-8,-33,-5,-11,-1,-7
1582297439421843,-1,-1,2,14,-7,-4,-1,-1
1582297439421843,6,2,9,26,22,-3,-1,7
1582297439433793,-6,-1,-1,9,-17,18,0,0
1582297439433793,6,-3,-2,-1,-4,-23,2,2
1582297439442691,0,-2,-4,-16,-1,-3,-2,-10
1582297439442691,-29,1,-3,-8,-5,0,-2,9
1582297439457662,16,0,-1,0,8,-18,2,15
1582297439457662,1,1,0,-4,1,7,-2,-9
1582297439459438,0,-2,0,0,-4,15,1,-1
1582297439459438,-3,-3,0,5,1,-22,-5,-5
1582297439480546,-7,-1,-1,-2,-7,-2,1,3
1582297439480546,1,1,-1,3,0,-2,-1,2
1582297439481644,-6,0,0,0,4,-6,-2,-4
1582297439481644,-2,-4,-5,-8,-7,14,-1,1
1582297439493890,-1,-1,-1,-6,6,-7,-2,-5
1582297439493890,4,-3,-2,5,-3,-4,-2,2
1582297439502497,-6,0,1,-2,9,-9,0,0
1582297439502497,5,-1,-4,-18,-4,9,-3,-4
1582297439517510,-4,-3,2,15,3,-6,3,2
1582297439517510,-1,-2,0,10,-4,13,0,1
1582297439519536,-2,1,2,5,-2,-3,-1,-2
1582297439519536,5,2,-5,-7,-5,-9,0,-2
1582297439540285,-2,-1,-1,-7,9,7,0,-2
1582297439540285,-5,0,7,7,3,-6,0,0
1582297439541339,7,0,-2,-2,-4,4,-4,-4
1582297439541339,-18,-5,-1,-4,-2,4,-1,-9
1582297439554178,5,-2,-3,0,2,-2,-1,7
1582297439554178,-2,-3,-2,-2,3,3,-2,1
1582297439562288,15,1,-2,-4,-3,-2,2,34
1582297439562288,-7,2,-2,-2,-6,-1,-3,-40
1582297439578113,-5,1,-2,-2,0,-15,-1,-2
1582297439578113,0,-2,-5,-6,-5,14,-1,-4
1582297439579177,-3,-2,3,0,7,15,1,4
1582297439579177,5,-3,0,0,12,-9,-3,8
1582297439600262,-3,0,0,5,-20,-6,2,-1
1582297439600262,2,-2,-1,6,-1,-6,0,-2
1582297439602054,-7,0,-2,-3,-7,-3,-1,-11
1582297439602054,5,-1,-3,-3,3,7,2,8
1582297439614039,0,-1,-1,-5,2,-3,-1,-4
1582297439614039,7,-1,-2,-6,2,-5,-3,4
1582297439622991,-16,0,0,0,-6,-3,-1,-10
1582297439622991,-4,-3,-1,3,-2,2,1,5
1582297439638011,5,-3,0,-5,7,-5,0,4
1582297439638011,-4,0,-1,-6,-15,0,-3,-4
1582297439639022,0,-2,-2,7,-2,-9,0,-6
1582297439639022,11,-2,1,3,-6,5,-2,3
1582297439660098,-7,-2,1,-4,2,2,-2,0
1582297439660098,-1,0,1,-1,8,-3,-1,-3
1582297439661888,-6,1,-2,-5,0,0,-1,-9
1582297439661888,8,-2,-2,-1,-9,-6,-1,9
1582297439673865,-1,0,-3,1,2,-1,-2,-4
1582297439673865,-7,-1,0,-4,3,-7,-3,0
1582297439682890,-2,-3,-2,1,-11,-6,-1,6
1582297439682890,1,0,-2,-4,6,11,1,1
1582297439697991,-2,-2,-1,-6,1,-8,-3,-3
1582297439697991,-3,-1,-1,7,-3,9,1,-4
1582297439698970,-3,0,3,2,2,3,0,-7
1582297439698970,1,-1,0,6,-10,-5,-2,3
1582297439719883,1,0,0,-4,0,-2,-2,2
1582297439719883,-1,-1,-2,-4,16,7,-1,-4
1582297439721734,-2,-1,-3,-7,-17,-9,0,1
1582297439721734,0,-1,2,0,-1,0,0,0
1582297439733841,-1,2,-3,0,-2,3,-2,-1
1582297439733841,-2,-3,-2,-1,-2,-5,1,1
1582297439742741,3,0,-2,-1,10,1,-3,-1
1582297439742741,0,-2,-2,0,-1,6,0,0
1582297439757643,-2,0,-2,-3,-2,-8,-2,-2
1582297439757643,0,1,1,4,-4,0,1,1
1582297439758743,1,-1,-2,-2,1,-2,-1,-1
1582297439758743,-2,0,-1,1,-2,-1,1,1
1582297439780629,-1,-2,-2,1,0,3,-1,0
1582297439780629,0,0,-1,-2,-2,-4,-2,0
1582297439781572,0,2,-2,-4,0,1,-4,-2
1582297439781572,-1,1,0,0,-13,-4,0,-1
1582297439793745,-1,3,1,2,20,-8,2,0
1582297439793745,1,0,-2,-3,-16,12,1,1
1582297439802513,-4,-3,-1,-3,3,-7,-2,-2
1582297439802513,0,-2,-1,1,-1,-3,-3,1
1582297439817920,0,-1,-2,-5,-8,-2,1,-1
1582297439817920,1,-2,-1,-3,2,-8,-2,-1
1582297439823511,-1,-1,-1,0,7,14,0,-1
1582297439823511,-2,0,0,-3,-6,-3,-1,0
1582297439840425,-3,-2,-2,-3,2,2,0,-3
1582297439840425,3,0,0,-2,1,-4,-1,3
1582297439841812,-1,-2,-1,-2,0,-1,-1,0
1582297439841812,0,-2,-2,0,7,-5,-2,-4
1582297439853812,-3,-3,-6,-10,-11,5,-1,-2
1582297439853812,-2,-1,3,4,1,-3,-1,-2
1582297439862532,1,0,1,11,-1,-17,0,-2
1582297439862532,-1,-1,0,2,0,10,0,1
1582297439877522,0,-3,-1,0,-2,-9,-2,-3
1582297439877522,-2,-1,-2,-6,0,19,-2,-2
1582297439879312,-1,-2,-2,-7,-5,-9,-1,0
1582297439879312,0,-1,-1,-1,-7,1,0,-3
1582297439900454,0,0,-1,-5,4,-11,-2,-2
1582297439900454,-2,-1,-2,4,7,10,3,0
1582297439901843,-1,-1,0,-3,5,-2,-1,0
1582297439901843,-2,0,-1,1,-4,-2,1,0
1582297439913643,-2,1,0,1,-4,2,-2,0
1582297439913643,-1,-1,0,-3,-5,-11,0,-1
1582297439922389,0,-1,-1,-2,1,2,-2,0
1582297439922389,-2,-1,-2,-3,-5,-8,0,-2
1582297439937579,0,0,0,1,-4,6,1,0
1582297439937579,0,-1,-3,0,0,-8,-2,3
1582297439939151,0,-1,-2,-2,-5,3,0,-2
1582297439939151,0,-2,0,-2,6,-2,-2,0
1582297439960318,0,-1,1,1,-3,3,2,1
1582297439960318,0,0,0,0,-3,-7,-3,-2
1582297439961089,1,-2,-1,-1,-1,5,-1,-3
1582297439961089,-2,-2,-2,-2,2,-6,-1,0
1582297439974053,-2,1,1,3,-1,5,-1,0
1582297439974053,1,-1,-1,-1,1,-7,-2,1
1582297439983028,-2,-1,1,0,-3,17,-1,0
1582297439983028,-1,0,-1,2,3,-14,-1,-2
1582297439998055,-2,-2,-2,-2,-7,-4,-2,0
1582297439998055,1,-1,0,-1,2,-2,-1,-1
1582297439999161,-2,-1,-1,-1,-5,-1,-1,-1
1582297439999161,-1,-2,-4,-5,-2,5,0,0
1582297440019980,0,-3,-1,-5,1,-2,-3,-1
1582297440019980,-2,-1,-1,10,-3,-6,0,-3
1582297440021925,0,-2,-2,-3,0,0,1,1
1582297440021925,0,-1,-2,1,0,3,-1,0
1582297440033953,0,0,-1,0,9,2,-1,-1
1582297440033953,-4,1,0,-8,-18,-5,-2,-3
1582297440043090,-2,-1,0,4,-2,-7,-1,-2
1582297440043090,-1,0,-1,-3,3,2,1,-2
1582297440057850,0,0,-1,0,-1,5,2,-2
1582297440057850,-1,-1,0,-5,5,0,-1,0
1582297440058825,3,-1,2,6,-4,-5,1,-1
1582297440058825,1,1,-1,-4,-7,-1,-1,-2
1582297440079976,-1,-2,-2,0,2,-5,-1,-2
1582297440079976,-1,-1,-4,-4,3,-2,0,0
1582297440081830,-4,-1,-2,-1,1,-6,-2,-1
1582297440081830,-1,-1,1,3,2,6,-1,0
1582297440102908,1,1,0,-1,-4,-4,0,-1
1582297440102908,-2,-3,-2,-1,-2,3,0,-3
1582297440104549,1,0,-1,-3,0,-1,-1,-3
1582297440104549,0,1,-1,-2,1,-2,0,0
1582297440117883,-2,-4,-1,-5,1,2,-1,0
1582297440117883,1,0,0,8,-13,6,0,0
1582297440118676,1,1,-5,-7,5,-14,-2,-1
1582297440118676,-1,-2,-1,-6,1,-6,-1,-2
1582297440139652,0,1,0,12,-2,5,-2,-1
1582297440139652,-1,2,2,1,5,-6,-1,1
1582297440141603,-1,-2,-2,-3,-4,-2,-1,-1
1582297440141603,-1,0,-3,-7,-5,2,0,-1
1582297440162726,-2,-2,-2,-3,12,-5,-2,0
1582297440162726,-1,-3,0,-6,-9,-2,-2,-2
1582297440163543,0,1,-2,-4,-3,3,-2,-1
1582297440163543,-2,-1,1,7,-3,-6,-1,0
1582297440177561,-1,0,3,10,5,8,0,-1
1582297440177561,0,-3,-3,-3,6,-7,-2,-2
1582297440178588,-1,-1,-1,-8,-3,1,0,1
1582297440178588,-1,-2,-1,5,-1,3,-2,-1
1582297440199450,-2,1,-1,-3,-7,-4,-1,-1
1582297440199450,0,-2,-3,-3,3,3,-1,-1
1582297440201707,-1,0,0,1,-1,-1,-1,-2
1582297440201707,-1,-2,0,3,4,2,0,-1
1582297440222458,-1,-2,-2,-3,-7,-1,-2,1
1582297440222458,-2,0,0,-2,5,-10,-1,-1
1582297440224380,1,-2,0,3,-2,4,1,0
1582297440224380,-2,-1,1,-2,-8,12,-4,1
1582297440236449,1,-2,-1,-3,4,-3,0,-1
1582297440236449,0,-2,-1,-2,-2,-1,-1,-2
1582297440243382,-2,0,-1,2,-4,-1,-3,-3
1582297440243382,-2,-1,0,-1,7,8,0,-1
1582297440260477,0,-1,-2,-4,-17,-20,-1,-1
1582297440260477,-1,-1,0,8,3,4,1,1
1582297440261391,-1,2,-1,5,3,1,-1,-3
1582297440261391,-3,0,-1,-5,-6,-8,-1,-2
1582297440282461,-2,-1,-1,-3,4,5,-1,-1
1582297440282461,0,0,-1,-4,2,-11,-2,2
1582297440284270,-3,-2,-2,-11,-9,22,1,-1
1582297440284270,0,0,0,1,4,-5,0,-2
1582297440297606,0,2,3,5,-3,4,-2,-3
1582297440297606,-1,1,0,1,-2,-1,-1,-3
1582297440304239,0,-1,-2,-1,1,-4,0,1
1582297440304239,0,-2,-4,-6,-3,-3,-2,1
1582297440320356,-3,-2,-1,-3,-1,1,0,-2
1582297440320356,-3,-1,-2,-6,-5,3,-2,-1
1582297440321420,1,0,1,-1,-1,-11,-1,-1
1582297440321420,0,-1,-3,-4,9,-2,1,-3
1582297440343067,0,0,2,7,-11,-2,-1,0
1582297440343067,0,0,-1,-3,2,3,-1,-1
1582297440344063,-3,-3,2,8,2,-2,0,0
1582297440344063,-3,-1,-1,-3,-8,-7,-2,2
1582297440357084,-1,-1,0,3,5,6,-2,-2
1582297440357084,-2,1,-1,-5,-1,3,1,-2
1582297440364086,-1,1,-1,0,-3,-10,-2,0
1582297440364086,1,-1,-1,2,-6,6,-1,-3
1582297440380195,-2,0,-2,-8,7,-25,-2,-2
1582297440380195,0,-3,-2,0,-2,14,-1,0
1582297440381961,-1,-2,-3,-1,-1,15,1,-1
1582297440381961,-1,0,1,-2,3,-9,-3,-2
1582297440403039,-1,-1,-1,-1,-1,4,0,-1
1582297440403039,0,-1,-1,3,-2,-6,-2,-2
1582297440404371,-2,-1,1,-2,2,-5,-2,-1
1582297440404371,0,0,2,4,-11,1,1,1
1582297440417075,0,-4,-3,-6,12,1,0,2
1582297440417075,-2,-1,-1,-2,-2,6,-1,0
1582297440423917,0,-1,-1,-3,1,-2,2,0
1582297440423917,-3,1,0,2,-1,-2,0,-2
1582297440439807,-1,1,1,-3,-13,1,1,0
1582297440439807,-2,1,-1,9,10,-2,1,2
1582297440441804,-2,-2,-3,-6,2,-6,-2,-3
1582297440441804,-1,-2,0,4,1,1,-2,-1
1582297440462758,-1,-3,-2,1,-10,-1,-1,1
1582297440462758,0,1,-1,-5,0,5,-1,-2
1582297440463744,-2,1,-3,-1,-4,-6,-2,0
1582297440463744,0,-2,1,0,3,-5,-2,-1
1582297440476714,-1,0,-1,1,3,4,0,-3
1582297440476714,-1,1,1,1,-3,-6,-1,-1
1582297440483735,-2,0,0,-5,-1,-2,0,0
1582297440483735,1,1,-3,-4,1,2,-2,-1
1582297440500171,1,-2,-1,-1,2,7,-1,-1
1582297440500171,1,0,0,-3,-1,2,-1,0
1582297440501642,-2,-1,-1,-1,-1,-14,0,-1
1582297440501642,0,-1,-1,-3,-2,4,-1,0
1582297440522792,-2,0,-1,4,-13,-4,-1,2
1582297440522792,-1,0,0,0,16,1,2,-1
1582297440524359,-1,1,-2,1,-1,8,-2,0
1582297440524359,1,-1,-1,-2,1,-11,-1,-1
1582297440536757,0,-2,-1,-3,-5,-1,0,-1
1582297440536757,-2,-3,-2,-4,-4,-4,-3,0
1582297440543572,0,-1,0,-5,0,-1,-1,-2
1582297440543572,-2,-1,3,13,0,0,-1,-3
1582297440560533,0,-2,-3,-5,0,3,0,-3
1582297440560533,1,-2,-1,1,-5,-7,1,-1
1582297440561487,1,-3,-2,2,0,2,-2,-1
1582297440561487,0,0,-1,-4,7,4,-1,0
1582297440582635,0,-1,-1,-3,-11,-7,-3,-2
1582297440582635,-2,-1,-1,0,-3,-5,-1,-1
1582297440584421,1,-1,-2,-3,-7,-11,-1,-3
1582297440584421,-2,0,-2,0,6,17,-2,0
1582297440596578,-4,0,0,1,8,-1,0,-1
1582297440596578,1,-1,-1,-1,-6,-2,-2,0
1582297440605427,1,-1,0,-1,1,4,1,1
1582297440605427,-2,-1,-2,-5,-7,-8,-2,-2
1582297440620739,-1,1,-4,0,-1,-1,-1,0
1582297440620739,-3,-2,-2,-5,-11,-1,-2,-2
1582297440621322,-2,2,0,4,14,5,0,0
1582297440621322,-1,-2,-1,-1,-4,-1,0,-1
1582297440642269,-1,1,0,-2,0,-1,0,-2
1582297440642269,0,-1,0,1,1,9,-2,-1
1582297440644263,-2,-3,-1,1,-6,-5,-2,-2
1582297440644263,0,-3,-3,-6,-4,2,3,2
1582297440656228,-2,1,0,1,6,-9,-2,-3
1582297440656228,0,0,1,4,-2,5,-1,-1
1582297440665405,0,0,0,2,-5,-5,1,-1
1582297440665405,-2,-1,-2,-10,-1,10,-2,-2
1582297440680375,1,-2,-1,0,0,6,1,-1
1582297440680375,0,0,1,0,5,-7,0,-1
1582297440681411,1,1,-2,-2,0,1,-1,-1
1582297440681411,-1,0,-2,5,-2,-8,-1,-1
1582297440703301,0,-1,0,-5,3,-4,-1,2
1582297440703301,-2,-2,-2,-2,-8,0,-4,-2
1582297440709085,-1,-1,0,-1,-3,1,-2,1
1582297440709085,-4,-2,-1,-5,2,-3,-2,-3
1582297440716226,-1,-1,-1,-3,2,8,0,-2
1582297440716226,-2,1,-2,-1,-3,-6,0,0
1582297440725043,0,-1,-1,-1,-2,1,0,0
1582297440725043,0,-1,0,1,-1,-7,-2,0
1582297440740016,2,-1,-1,1,-2,9,-2,-1
1582297440740016,-1,-2,0,3,5,-8,0,0
1582297440742028,-1,-1,-1,-4,-5,2,0,-2
1582297440742028,-1,0,-1,-4,1,-4,1,-2
1582297440762970,-2,2,-1,-4,1,5,0,0
1582297440762970,-2,-3,0,4,3,-16,-2,0
1582297440763955,-1,-2,1,6,0,21,-1,0
1582297440763955,0,-1,-1,0,-2,-6,-2,-2
1582297440775907,-2,0,-1,-2,-4,1,1,-1
1582297440775907,0,-2,-3,-6,1,5,0,-1
1582297440784931,-1,0,1,0,5,-6,2,1
1582297440784931,0,-1,-1,1,0,5,0,-3
1582297440800047,0,1,-1,8,1,-3,-1,1
1582297440800047,1,-1,0,-2,-6,1,1,0
1582297440801843,-3,-2,-2,-2,1,-12,0,-3
1582297440801843,-1,-1,0,-4,-12,2,-1,-1
1582297440822827,0,-2,-2,-2,15,-3,-1,-2
1582297440822827,-1,1,-3,-3,-4,-5,-1,-4
1582297440824183,0,0,-3,-2,-2,-2,-3,-1
1582297440824183,0,0,1,-3,-3,-3,-2,0
1582297440844778,-2,-1,0,2,-8,-2,-1,-1
1582297440844778,-2,-1,0,-2,1,2,0,-2
1582297440844778,0,-2,-1,-5,-2,-4,-1,-3
1582297440844778,-2,-1,-1,9,-1,15,0,1
1582297440859689,-2,0,-1,-2,3,-12,-4,0
1582297440859689,-1,1,-2,-5,1,8,3,1
1582297440859689,0,-1,0,-1,-5,-3,-4,-2
1582297440859689,1,0,0,1,1,-15,-1,1
1582297440881629,-1,-2,0,-3,-6,12,-1,-2
1582297440881629,-2,0,-2,-2,-5,0,0,-1
1582297440882669,0,-3,0,-2,-2,1,-1,-2
1582297440882669,0,0,-1,2,4,-6,-1,1
1582297440904774,-2,0,0,-4,-6,-2,-1,-1
1582297440904774,0,-1,-2,-3,17,6,-2,-2
1582297440904774,-2,-1,-2,-2,-15,-11,-5,-1
1582297440904774,0,-1,-3,-7,0,8,1,-3
1582297440919932,1,0,-1,7,2,-3,-1,-2
1582297440919932,-2,-1,-1,-3,-4,4,-3,1
1582297440920522,-2,-1,-2,2,7,1,0,1
1582297440920522,-4,-2,-1,-1,-4,-5,-1,-3
1582297440941466,-2,0,-1,-5,-7,0,-2,-2
1582297440941466,-1,-2,-3,-4,2,-3,0,-1
1582297440942466,3,2,-1,-3,1,-4,-1,-4
1582297440942466,-1,-1,1,3,-9,-1,-2,2
1582297440964738,-2,-2,1,-3,2,-6,-1,-2
1582297440964738,-2,-3,0,1,-6,-1,-2,-2
1582297440965400,-2,0,-3,-6,-3,-5,0,0
1582297440965400,-2,1,-1,-6,3,1,-1,-2
1582297440979416,0,-2,-2,1,2,0,-2,-1
1582297440979416,-1,-1,-1,0,-9,-8,-1,-3
1582297440980361,-1,-1,-1,1,7,19,-2,-1
1582297440980361,-2,-3,0,-6,-2,-1,-2,-3
1582297441002310,-2,-3,0,-3,-2,-9,0,0
1582297441002310,0,-1,0,9,2,-1,-2,-3
1582297441002310,0,-2,-2,1,-2,2,-1,0
1582297441002310,0,0,-4,-4,2,-3,-3,3
1582297441032431,-1,0,1,1,-4,4,-1,-1
1582297441032431,0,0,0,0,0,-9,-1,0
1582297441033315,-1,0,-1,2,-2,-2,-2,-1
1582297441033315,0,1,0,5,4,3,-1,1
1582297441039378,0,-2,-3,-6,-1,2,0,0
1582297441039378,0,-3,0,-4,0,1,-1,2
1582297441040203,-2,2,-2,1,-3,-5,-1,-2
1582297441040203,-2,-1,-1,-7,-3,-5,0,-2
1582297441062190,-2,0,-2,-4,0,-3,-1,-1
1582297441062190,0,-1,2,-1,-5,7,-2,-1
1582297441062190,0,-2,1,3,-3,-6,-1,1
1582297441062190,0,0,0,2,1,-2,-1,-2
1582297441093067,0,-2,-1,1,-2,-1,-2,-2
1582297441093067,-1,-1,-2,-4,-6,-4,0,-2
1582297441093067,-2,1,-1,-4,5,3,0,0
1582297441093067,0,-1,0,2,-5,-2,0,-3
1582297441099314,2,0,-2,-6,2,-1,-1,-1
1582297441099314,-1,-2,-3,3,-2,8,2,0
1582297441100074,1,-3,-1,-2,0,-14,-1,-2
1582297441100074,-1,-2,-1,1,9,8,1,0
1582297441122184,0,0,-5,-1,-16,-5,-2,0
1582297441122184,0,-1,1,-2,0,-3,-1,-2
1582297441122981,0,0,2,7,0,0,-1,-3
1582297441122981,1,0,1,-5,0,6,-1,-1
1582297441144922,-2,-1,1,2,4,-16,1,0
1582297441144922,-2,0,-1,2,0,1,0,0
1582297441144922,-1,-2,-3,-2,-6,3,1,0
1582297441144922,2,-2,-2,-2,-11,-8,-2,0
1582297441158940,-1,0,1,0,14,7,0,-2
1582297441158940,1,0,0,-3,-4,-3,-2,-1
1582297441159881,0,1,0,0,-1,-2,-1,-1
1582297441159881,-3,0,-2,2,2,0,2,1
1582297441181977,1,-1,-1,-3,-3,-1,1,0
1582297441181977,1,0,-1,1,0,-5,-1,0
1582297441182819,0,1,-3,-4,1,3,-1,-2
1582297441182819,-3,0,-2,1,-8,-5,-1,-2
1582297441205317,-3,-3,-1,0,-8,-2,-1,0
1582297441205317,0,0,-2,-3,8,2,-2,-2
1582297441205817,0,-2,-4,-7,-2,2,-1,-1
1582297441205817,0,-2,1,2,14,-9,-1,0
1582297441219870,-1,1,-1,-2,-19,0,-2,0
1582297441219870,-2,-2,-2,-3,-5,-4,0,0
1582297441220298,-1,-1,0,0,2,4,-1,0
1582297441220298,0,0,-3,-5,-2,-1,1,-1
1582297441241710,0,1,-1,1,3,5,-1,-3
1582297441241710,0,0,-1,-2,-10,4,-3,0
1582297441242673,-3,-1,0,-6,13,-21,-2,-1
1582297441242673,-1,-2,-1,4,-9,9,-2,0
1582297441264987,2,2,1,1,5,0,0,-1
1582297441264987,0,-1,-5,3,-3,-1,1,-2
1582297441265606,-1,-1,-3,-1,-2,2,-1,2
1582297441265606,-2,-2,-1,-7,-2,-6,-2,3
1582297441279792,0,0,1,0,3,1,-3,1
1582297441279792,-1,-2,1,0,2,-2,-1,0
1582297441279792,0,-2,0,3,-3,6,1,-2
1582297441279792,0,0,0,4,0,-5,0,-2
1582297441301721,-1,-2,-3,-7,4,9,0,-3
1582297441301721,-2,-2,-3,-3,1,-5,-2,-1
1582297441302555,0,-2,-1,-1,-4,0,-1,0
1582297441302555,1,-1,-4,-1,-4,2,1,-3
1582297441325437,-2,-1,-2,-1,1,-5,-1,3
1582297441325437,-2,-2,0,-3,3,0,3,0
1582297441325437,1,1,-1,0,-4,1,-1,-1
1582297441325437,0,-1,-1,-2,12,-11,0,-3
1582297441339533,-1,-2,1,2,-13,11,-2,-1
1582297441339533,-1,1,-2,-1,0,-2,0,-2
1582297441340409,0,0,-1,0,-7,3,-1,0
1582297441340409,-1,-1,1,-3,1,-4,-2,-1
1582297441361512,-1,-4,-1,1,6,-4,0,0
1582297441361512,-2,0,0,2,-1,1,-1,-2
1582297441362339,-3,-1,-1,0,-2,-1,1,0
1582297441362339,-2,-2,-1,-3,-3,11,-2,-3
1582297441385503,-1,-1,0,4,5,-16,-1,-1
1582297441385503,0,-1,-2,-4,-3,1,-3,-2
1582297441386274,-1,-2,-3,0,4,4,1,0
1582297441386274,-3,-2,-1,-7,-15,-2,-3,-2
1582297441399735,-1,0,0,3,-3,3,0,0
1582297441399735,-3,1,-2,-5,4,-5,0,-1
1582297441400245,-1,0,2,4,-5,-9,-1,-1
1582297441400245,0,-1,-2,2,0,8,0,-1
1582297441422384,0,-2,-2,-9,-2,-7,-1,-1
1582297441422384,-3,-1,-1,2,-4,-4,-1,-2
1582297441422684,-3,-1,-3,-13,3,4,-1,0
1582297441422684,0,-2,0,7,0,-5,0,-1
1582297441445351,-1,1,0,4,0,2,0,0
1582297441445351,0,-1,-2,-3,-1,-2,1,1
1582297441446114,-1,-1,0,1,-2,2,-2,-2
1582297441446114,-1,-1,-1,-1,11,-1,-2,1
1582297441459522,0,2,-2,-7,-20,-4,-3,-3
1582297441459522,-1,-1,2,9,13,13,-2,-1
1582297441460080,-1,-2,0,-2,-4,0,0,-1
1582297441460080,-1,0,0,-1,-1,-4,-1,1
1582297441489998,-1,-3,0,0,4,-2,-3,-1
1582297441489998,0,-1,1,-2,-6,-12,0,0
1582297441491118,-1,0,-1,2,-2,25,-1,-2
1582297441491118,-1,-2,-3,-6,-1,-14,0,2
1582297441505149,-2,-2,-2,3,3,0,0,0
1582297441505149,-3,-1,-3,-6,-3,4,-1,-4
1582297441505989,0,-2,0,0,3,-7,1,0
1582297441505989,-2,3,0,7,-7,2,-1,0
1582297441519125,0,0,1,-7,2,3,1,-1
1582297441519125,-1,1,0,5,0,-11,-1,-1
1582297441520132,0,-1,-1,-3,-5,-4,-3,-2
1582297441520132,-1,-1,0,-7,-2,0,-2,-2
1582297441541860,-3,-2,-1,2,3,1,0,0
1582297441541860,-1,1,-1,5,-1,0,-2,0
1582297441542893,1,0,-1,0,-2,-2,-1,-2
1582297441542893,1,-1,0,1,3,-16,0,0
1582297441565351,1,-3,0,1,4,18,0,-1
1582297441565351,1,-1,1,-5,-6,3,1,0
1582297441565859,-3,0,-4,-2,1,-5,-2,-2
1582297441565859,-2,-1,-2,-1,-4,0,-1,0
1582297441579829,0,1,0,-3,1,-1,0,-1
1582297441579829,2,-2,-1,-3,-4,1,0,1
1582297441579829,-2,0,0,1,4,-6,-1,-1
1582297441579829,-1,-3,-2,0,1,2,-1,-2
1582297441601900,-1,0,-2,-3,2,4,0,0
1582297441601900,0,-1,-2,-1,-7,-3,-1,3
1582297441602766,-3,0,-1,1,-3,-1,2,0
1582297441602766,0,0,-3,-6,-1,0,1,0
1582297441624638,-3,-2,-2,2,-3,3,-1,-2
1582297441624638,0,-3,-3,-2,-2,-9,2,-2
1582297441625638,0,0,-1,-3,1,1,-1,-2
1582297441625638,-1,2,0,8,4,-5,0,-1
1582297441638805,-1,1,0,0,-13,6,-2,0
1582297441638805,-1,-1,-1,-3,2,-5,-1,0
1582297441646625,1,-1,0,-2,-1,-3,-1,0
1582297441646625,0,-2,-3,-4,-6,4,1,1
1582297441661731,0,-2,-3,-3,5,-12,-1,-1
1582297441661731,-1,-3,-1,0,1,4,-2,-2
1582297441662539,-1,0,-2,-2,7,-4,-1,0
1582297441662539,-3,0,3,3,-10,8,-1,0
1582297441684698,-1,0,1,2,8,-11,-2,1
1582297441684698,-1,-1,0,-2,-4,1,0,-1
1582297441685476,-1,-2,1,3,2,-2,-1,1
1582297441685476,-1,-1,-2,-6,-3,-1,-1,-5
1582297441698499,1,-1,-2,0,3,0,-1,-1
1582297441698499,0,1,-2,-6,-2,3,0,-2
1582297441706420,0,1,-1,6,6,0,-1,-1
1582297441706420,-1,-1,-1,-2,-2,2,0,-1
1582297441721806,-1,-3,-3,1,-7,-7,-1,-1
1582297441721806,-2,-3,-2,-5,0,1,-1,2
1582297441722390,-3,-1,1,-1,-4,2,0,0
1582297441722390,-2,1,2,8,3,-5,-1,-2
1582297441745315,-3,-2,0,-4,0,4,1,-1
1582297441745315,0,0,0,1,0,-17,-2,-2
1582297441745315,-2,-2,-3,-6,-4,1,0,-3
1582297441745315,1,-2,-1,-2,3,-2,2,1
1582297441767673,-4,-1,-1,-2,-2,-2,-1,0
1582297441767673,-1,0,0,0,1,10,-2,-1
1582297441768308,1,-2,1,3,12,-1,0,-1
1582297441768308,-1,-1,-1,-4,-19,-2,-3,-1
1582297441782383,-1,0,1,5,0,-2,-2,-1
1582297441782383,-2,-2,0,-1,-1,3,-2,-1
1582297441782690,-2,0,-3,-3,-4,-15,0,-2
1582297441782690,-1,-3,-1,-3,9,22,-1,-3
1582297441805594,0,-1,-1,-2,-3,-3,-1,0
1582297441805594,-1,-1,-1,-3,2,-2,-1,-3
1582297441806155,0,-1,-2,1,-6,-8,-2,-1
1582297441806155,-2,-3,-1,2,-13,8,-1,-1
1582297441819128,1,-1,-3,-4,12,-7,-2,0
1582297441819128,0,1,0,9,2,7,0,0
1582297441827274,1,-2,-1,-2,-7,-3,-2,0
1582297441827274,-2,-1,-4,-3,1,-4,-1,-1
1582297441842133,0,-1,0,-8,-1,-3,-2,-3
1582297441842133,0,-1,0,-1,-3,0,-2,-1
1582297441842133,-1,-2,0,0,-2,6,1,1
1582297441842133,1,-1,0,-2,1,-15,-3,-2
1582297441865187,-2,0,-3,-2,-4,2,-1,0
1582297441865187,-1,-1,-1,-4,3,-16,-1,-2
1582297441866182,-1,-2,0,-1,-8,36,-1,-1
1582297441866182,-2,-2,1,-2,4,-6,1,0
1582297441879125,1,0,-1,0,-3,-4,1,0
1582297441879125,-1,-3,-1,2,0,3,-1,-1
1582297441887150,-2,-1,-1,-3,-1,-7,-3,1
1582297441887150,1,0,-1,-5,6,3,0,-1
1582297441902101,-1,-1,0,4,1,3,-1,-1
1582297441902101,0,1,-2,-1,1,0,1,0
1582297441902954,-1,-1,-1,1,-3,-6,-2,-2
1582297441902954,0,-2,-3,-10,-11,-5,-3,-2
1582297441924892,-1,-2,-3,-1,13,-1,0,-2
1582297441924892,0,1,1,7,-1,-3,-2,0
1582297441925835,-1,-2,-1,-6,-3,-10,0,-2
1582297441925835,-1,0,0,7,1,5,-1,-1
1582297441939009,-3,-1,0,-6,-6,-2,0,-3
1582297441939009,-1,-1,-2,1,-4,4,-2,-2
1582297441946776,-1,0,0,1,3,-14,-2,-1
1582297441946776,-1,-1,-1,-1,3,-6,-2,1
1582297441961735,-1,-1,-2,1,-6,4,1,0
1582297441961735,-2,-3,-2,-7,-1,-4,0,-1
1582297441962732,0,-1,0,5,1,14,0,-3
1582297441962732,-1,0,0,-1,-2,-18,0,1
1582297441985184,0,-1,-2,-1,11,1,0,-1
1582297441985184,0,0,1,0,-6,3,0,-2
1582297441985673,-3,-2,-2,-3,0,-3,-2,-1
1582297441985673,-1,0,0,1,1,4,-2,-1
1582297442015598,-1,1,0,-1,-4,-6,-1,1
1582297442015598,-2,-2,0,-6,5,-10,-1,-3
1582297442015598,-1,0,-1,4,-6,32,-1,-1
1582297442015598,0,0,-1,1,2,-5,-1,-3
1582297442030559,0,-1,0,2,-4,-3,-1,-1
1582297442030559,0,-1,-2,-3,-4,-4,-2,1
1582297442030559,-1,-1,-1,0,-1,-13,1,0
1582297442030559,-1,-2,-2,-2,4,9,2,1
1582297442045560,0,-2,0,0,-8,-1,-1,1
1582297442045560,-1,-2,-2,-2,1,5,-2,-1
1582297442045560,0,0,0,-4,-2,-8,-3,-2
1582297442045560,-1,-2,0,0,0,3,-1,-1
1582297442067458,-3,-2,0,-1,-1,-3,-1,0
1582297442067458,-1,-2,-3,-2,-3,4,0,-2
1582297442068657,0,-2,0,-9,2,-14,-1,1
1582297442068657,-2,1,-1,13,2,-2,-3,-3
1582297442082448,-1,0,-1,-1,-4,-3,-1,-2
1582297442082448,-2,0,0,-1,2,-1,-1,0
1582297442082448,-1,2,-2,0,-4,0,0,0
1582297442082448,0,-2,-4,-5,9,-1,1,-1
1582297442105536,-1,1,-2,0,-11,6,-2,0
1582297442105536,-2,-1,0,4,3,-9,0,0
1582297442105536,0,-1,-1,-3,-3,-8,-1,-2
1582297442105536,-1,0,2,-3,2,1,-3,0
1582297442127441,-1,0,1,6,1,3,-2,-4
1582297442127441,1,0,-3,-8,-10,2,0,0
1582297442128621,-1,-2,-1,-1,2,1,0,-1
1582297442128621,0,-1,-1,-2,-1,-2,-1,0
1582297442142285,-1,-1,-1,-4,-5,0,-3,-2
1582297442142285,0,-3,-1,-1,-3,-2,-1,0
1582297442142485,0,1,-1,1,1,-3,-1,-1
1582297442142485,1,-1,-3,-5,-5,-5,-1,-1
1582297442165399,0,-2,-1,1,2,-1,2,0
1582297442165399,-2,-1,-2,-2,4,16,-1,-2
1582297442166188,0,-1,1,7,-1,-6,-1,0
1582297442166188,-1,-1,0,-3,-8,-2,2,1
1582297442188137,-2,-1,0,1,3,-4,0,1
1582297442188137,0,0,-2,2,-2,-2,1,2
1582297442188331,-1,-1,-4,-7,0,-2,-2,0
1582297442188331,-1,-2,-1,4,-6,0,-2,-2
1582297442202290,0,0,0,-2,-1,-4,0,2
1582297442202290,-2,-1,0,-2,-1,0,-2,0
1582297442202290,-1,-3,-3,0,-3,1,-1,-2
1582297442202290,0,-1,1,-2,-2,-2,-1,-2
1582297442225327,1,-2,-1,1,10,4,-1,-2
1582297442225327,1,-1,1,0,-5,5,-1,-1
1582297442226034,-1,-1,1,2,7,-1,-1,-2
1582297442226034,0,-1,-2,-3,-2,-2,-1,1
1582297442248023,-2,-2,-1,-8,-7,-3,-4,-3
1582297442248023,-2,0,3,8,1,-4,1,0
1582297442248023,-1,-3,-1,3,-1,8,0,-2
1582297442248023,1,0,-2,-2,1,-2,-1,0
1582297442262111,-2,-1,-3,-3,-4,-3,-1,0
1582297442262111,0,-2,-3,-6,2,-9,-4,-1
1582297442262929,-1,-1,-1,2,-4,-1,0,1
1582297442262929,-2,-1,-1,2,0,6,-1,-1
1582297442285289,0,-2,-2,-1,2,-5,-1,1
1582297442285289,-1,-1,-1,-2,-4,2,-1,-1
1582297442285931,-3,-2,-1,-2,12,-2,0,-1
1582297442285931,-2,-1,0,-1,-10,13,-1,-2
1582297442307811,0,1,-2,0,-1,-3,-2,2
1582297442307811,1,0,0,1,0,-1,0,-2
1582297442307811,0,-1,-2,-1,1,-1,-2,-1
1582297442307811,-1,-3,-3,-2,5,-1,1,-1
1582297442321997,-2,0,0,-2,-2,-6,0,-2
1582297442321997,-1,-2,-1,-5,-13,15,-1,0
1582297442322782,-1,1,-1,5,10,-11,0,0
1582297442322782,0,1,1,-4,-5,-3,-2,-1
1582297442345223,-3,1,2,12,2,-1,1,-1
1582297442345223,0,-1,-3,-4,3,-7,0,-1
1582297442345707,0,-1,-1,-7,-12,-1,-1,-3
1582297442345707,-1,0,-2,-3,0,0,-2,0
1582297442367810,-1,-1,-3,-6,0,2,0,-4
1582297442367810,-1,0,-2,-1,0,-14,-2,-1
1582297442368648,0,-1,-4,-7,-7,11,1,-1
1582297442368648,0,-1,2,2,5,-3,-1,-1
1582297442381774,2,-2,0,-3,-3,2,-2,1
1582297442381774,0,-1,-1,2,1,-8,-1,-2
1582297442382861,0,-1,-4,-3,-4,-5,0,0
1582297442382861,-1,-1,-2,-1,0,-2,-1,-3
1582297442405555,-2,-2,-2,-2,8,2,-2,-2
1582297442405555,-2,-1,0,6,-14,-5,-2,0
1582297442405555,0,-2,1,-1,0,-3,-1,-1
1582297442405555,-2,-1,-1,-2,1,5,0,-1
1582297442427708,-1,0,1,-1,-2,-8,-2,-1
1582297442427708,-1,0,-2,-2,5,-1,0,-2
1582297442428486,1,1,1,6,1,1,-2,1
1582297442428486,-2,-1,-2,0,-2,-4,0,0
1582297442441502,0,-2,-2,-4,-3,1,-1,-2
1582297442441502,0,-1,-3,-4,-2,-6,1,1
1582297442450427,-2,-1,-3,-6,8,7,-4,-1
1582297442450427,-2,0,0,3,0,-2,2,0
1582297442465586,1,1,-3,-2,-2,3,-1,-3
1582297442465586,-2,-2,0,-2,-1,-1,-2,2
1582297442466386,-1,-2,0,-5,-7,-17,-2,-2
1582297442466386,-3,-3,-2,-2,-2,13,-2,0
1582297442487534,0,0,0,0,-4,-3,0,-1
1582297442487534,0,0,-1,-1,1,4,-1,-2
1582297442489325,0,-2,-1,2,6,-3,0,-1
1582297442489325,0,-1,-2,-8,-17,-10,-3,-2
1582297442501498,-1,-2,0,-1,-4,1,-1,1
1582297442501498,0,0,0,3,3,2,-1,-2
1582297442510331,-1,-2,-3,-5,-3,2,-1,-1
1582297442510331,0,-1,-1,4,3,0,0,-1
1582297442525359,-1,-2,-4,1,-3,-20,-2,0
1582297442525359,-3,-3,0,-5,1,6,2,0
1582297442526750,0,0,0,3,-5,-3,-1,-2
1582297442526750,-1,0,1,-2,2,-4,-2,0
1582297442547300,-2,-2,-3,-3,5,5,1,-2
1582297442547300,2,1,0,2,6,-7,0,-1
1582297442549165,-1,-2,-1,-2,-5,10,-2,-2
1582297442549165,-1,0,-2,0,2,-3,-1,-2
1582297442570110,-1,-1,0,-2,-8,-1,-1,-1
1582297442570110,-1,-1,-1,0,14,-1,-3,0
1582297442571103,-2,0,0,-6,-6,3,0,1
1582297442571103,2,0,0,0,2,-7,-3,-2
1582297442585282,0,-2,1,1,0,1,-1,0
1582297442585282,-1,-2,-2,0,-7,-1,1,0
1582297442586685,-1,2,0,-7,-5,1,1,-2
1582297442586685,0,-1,-2,-3,1,-4,-3,-3
1582297442607529,0,-1,-1,-8,-5,1,-1,0
1582297442607529,-1,-1,5,14,-1,4,-3,-1
1582297442609014,-2,-4,-4,-1,9,-2,-1,0
1582297442609014,0,-1,0,-1,-6,-2,-1,-1
1582297442621127,0,-1,-1,2,3,0,-1,-4
1582297442621127,-2,-2,-2,-4,-5,-2,-1,1
1582297442630187,-1,-1,1,2,0,0,-3,-2
1582297442630187,-3,-1,-1,-3,4,-3,0,1
1582297442645411,0,1,-2,-2,1,-6,-2,0
1582297442645411,-1,-2,-1,-5,-1,7,1,-2
1582297442650944,-1,0,0,2,-6,7,-1,-2
1582297442650944,2,-1,-1,0,-5,-12,0,-1
1582297442668047,-2,-2,-1,-4,13,-3,-1,1
1582297442668047,-1,-1,0,-4,-7,-1,1,1
1582297442669080,1,-1,0,4,-4,-1,-1,-1
1582297442669080,-2,-2,-2,-5,-2,4,1,-1
1582297442681321,-3,-2,0,4,-4,4,-1,-2
1582297442681321,-1,1,-1,-4,-2,-3,0,-2
1582297442690071,0,-2,-1,1,-1,-2,-1,1
1582297442690071,-2,1,-2,-2,0,1,-2,0
1582297442712786,-2,-1,-3,-2,-2,-2,0,1
1582297442712786,-2,0,-3,-5,0,4,1,-3
1582297442714245,-1,-1,0,0,-3,-14,-1,-2
1582297442714245,-1,1,0,5,2,-3,-2,-1
1582297442727843,-3,-1,-2,-4,-4,6,0,1
1582297442727843,0,1,1,3,0,-5,0,0
1582297442728682,-1,-2,-3,-2,2,-4,-1,-1
1582297442728682,0,0,-1,-3,4,-2,-1,0
1582297442741647,-2,0,-2,1,-15,-5,-3,-1
1582297442741647,0,-3,-2,-6,0,4,0,-1
1582297442749825,-1,1,0,2,0,-8,-1,1
1582297442749825,-1,-2,0,2,-4,6,-2,-1
1582297442764736,-1,-2,-2,-5,2,2,-3,-1
1582297442764736,0,-1,-3,-3,5,-9,-4,-1
1582297442766582,1,-1,-1,2,-4,-1,1,0
1582297442766582,-1,0,-2,0,4,1,-1,0
1582297442787679,-1,-1,-1,2,-2,2,2,-2
1582297442787679,-1,1,-3,-3,-4,-1,-2,-2
1582297442789531,-2,-3,-2,-2,1,1,-1,-1
1582297442789531,1,-2,-2,-1,-5,0,-2,-1
1582297442801539,0,0,0,-1,2,-5,-2,0
1582297442801539,-1,-2,-1,-1,-2,-5,-2,1
1582297442810465,-3,-1,-1,-4,-1,-2,-2,0
1582297442810465,-1,-2,-1,2,0,6,4,-3
1582297442825444,1,0,0,4,0,3,0,-1
1582297442825444,0,-1,-1,-1,1,-4,-2,-3
1582297442826423,-1,2,0,-2,-4,3,-2,1
1582297442826423,-2,-2,-3,-11,0,-2,-1,-1
1582297442847365,-1,-3,1,2,-2,1,-1,-1
1582297442847365,1,0,-3,5,3,3,-3,-2
1582297442849363,-1,-2,-4,-6,-1,1,0,-1
1582297442849363,0,-1,2,6,1,-13,0,-1
1582297442861517,1,-1,0,3,-3,23,1,-3
1582297442861517,-1,-2,0,-1,-3,-1,-1,0
1582297442870372,1,0,-1,2,4,-5,-1,-2
1582297442870372,-2,0,-2,-2,-4,-2,-2,-2
1582297442885463,-1,-2,-1,-5,4,3,0,1
1582297442885463,-2,0,-1,-2,-5,-11,1,-1
1582297442886411,-1,-1,-2,-3,-1,0,-2,0
1582297442886411,0,0,-1,0,3,6,1,0
1582297442907250,-2,-2,-2,-1,-4,-7,-3,0
1582297442907250,0,-3,-3,-1,-2,3,-3,-2
1582297442909199,-2,-2,-1,2,-4,-3,1,0
1582297442909199,-2,-1,-2,-4,3,-2,-1,0
1582297442930387,-2,1,-1,-3,0,-4,0,-1
1582297442930387,-1,-1,-2,1,-1,-1,0,2
1582297442932040,-1,-1,-2,-2,0,2,-1,-4
1582297442932040,-1,-2,-1,-1,-5,1,-2,-1
1582297442945319,-1,-1,-2,-2,3,-5,-1,-3
1582297442945319,0,-3,0,2,-2,0,0,-1
1582297442946431,-1,0,1,1,-4,-13,-1,-1
1582297442946431,0,-2,-2,-4,1,29,-1,-3
1582297442968066,-1,1,-1,-4,-2,-7,0,1
1582297442968066,0,-1,-1,-5,0,-1,-1,-1
1582297442969069,-1,-3,-1,0,-1,0,-2,-2
1582297442969069,-1,-1,3,8,2,-3,0,-2
1582297442990029,0,-2,0,4,-2,-7,-3,1
1582297442990029,-3,-1,-1,-3,-4,7,0,-3
1582297442991982,1,1,-2,-4,6,-4,1,1
1582297442991982,1,-1,-3,-5,0,-6,-2,-1
1582297443005149,0,-2,0,-7,2,4,0,-1
1582297443005149,-1,-1,1,10,-7,-5,1,0
1582297443006939,-1,-1,2,0,0,10,1,1
1582297443006939,-2,1,0,3,-1,-8,-1,-1
1582297443027929,-2,-2,-2,-3,-3,-7,-1,-1
1582297443027929,0,-1,-1,-7,0,13,0,0
1582297443029190,-1,-1,-3,-1,-2,-3,-1,-1
1582297443029190,-2,-1,0,-2,-1,-1,1,1
1582297443049866,0,1,0,1,-3,-2,-1,-2
1582297443049866,0,-1,-1,-4,4,-6,0,-1
1582297443051825,-2,-1,0,5,-2,3,0,1
1582297443051825,0,-2,-2,-3,-6,-3,-3,0
1582297443064788,0,-2,0,0,0,-5,0,-3
1582297443064788,-1,-1,-2,-1,2,-4,-4,-2
1582297443071244,-1,0,-2,-2,-3,5,0,-1
1582297443071244,-2,-1,-1,-5,-1,-5,-2,0
1582297443087945,0,-1,0,1,-1,1,-2,-2
1582297443087945,-2,0,-2,1,-2,0,-2,-1
1582297443089439,-1,-1,-1,-4,-3,-1,-1,-2
1582297443089439,-1,-2,-1,3,3,-12,-1,1
1582297443110102,0,1,0,1,0,13,0,0
1582297443110102,-1,-2,-1,-2,-2,-4,0,-1
1582297443111662,0,0,-1,-1,-1,-2,-1,-1
1582297443111662,-1,-1,-2,-4,-2,-4,-1,-1
1582297443124652,1,0,0,4,-1,-14,0,2
1582297443124652,-2,0,-2,-4,-2,15,-1,0
1582297443138785,0,-1,-2,-3,-2,-1,-3,-2
1582297443138785,0,-1,1,7,5,2,-1,0
1582297443155093,-2,-1,-1,-2,-1,7,2,1
1582297443155093,0,-1,-2,-1,4,-8,-1,0
1582297443156551,0,-1,-1,-3,-1,-1,-1,1
1582297443156551,0,-1,-3,-5,-7,2,-2,-1
1582297443170516,-1,-1,0,-1,1,-3,-2,-2
1582297443170516,-1,0,-1,2,-2,-3,-2,-2
1582297443171507,-2,-2,1,-5,-1,0,-1,0
1582297443171507,0,1,2,8,-1,-4,-2,0
1582297443184683,-3,-1,-3,-2,5,9,1,1
1582297443184683,-1,0,-1,-1,-9,-17,-2,-1
1582297443191667,1,-1,-1,-2,0,-1,1,-1
1582297443191667,0,-1,-2,0,-2,-6,0,0
1582297443207498,-1,-4,-1,-2,0,14,-3,-1
1582297443207498,-2,-2,0,-5,0,-2,0,-1
1582297443209403,0,1,-1,1,-1,-2,0,-1
1582297443209403,0,0,1,2,2,1,1,1
1582297443230384,1,0,-3,1,-3,-4,-2,-2
1582297443230384,-1,-1,-1,-4,-1,-1,-1,-1
1582297443231990,-1,-2,0,1,-13,-3,-2,-2
1582297443231990,-1,0,-1,0,14,7,-1,1
1582297443244360,-3,0,0,1,9,-11,-3,-1
1582297443244360,1,-1,-2,0,-12,-5,-2,-1
1582297443251448,-1,0,-2,-2,-1,0,0,1
1582297443251448,-2,-3,-1,-6,-6,3,0,-1
1582297443267459,-1,-2,-1,3,-3,-6,-1,-2
1582297443267459,-2,-3,3,4,4,1,0,1
1582297443269235,-2,-1,-2,-2,1,2,-1,-1
1582297443269235,0,0,-2,-1,-4,-2,-1,-1
1582297443290559,0,2,0,-6,-4,-9,1,1
1582297443290559,-2,0,-1,-1,-1,8,-2,-2
1582297443291471,1,-2,-4,0,-2,-4,-2,-1
1582297443291471,-3,-2,-1,-4,-4,7,-2,-1
1582297443304343,1,0,-1,-2,0,-14,-1,-1
1582297443304343,-1,0,-2,5,7,5,0,1
1582297443311322,-2,0,0,2,0,-10,1,-1
1582297443311322,-1,-2,-3,-4,-4,2,-2,-2
1582297443328127,-1,-2,-3,-7,-5,4,0,-3
1582297443328127,-1,-2,-2,1,4,1,-1,-1
1582297443329215,-2,0,-1,-2,1,0,-1,1
1582297443329215,-1,-2,1,-4,-5,-6,1,-4
1582297443350230,-1,-1,-4,1,-6,2,-2,-2
1582297443350230,1,-1,0,-5,15,1,-1,0
1582297443352015,-1,0,0,19,-1,1,-1,-3
1582297443352015,-1,0,-1,-4,-3,-4,0,0
1582297443364182,-2,-2,-1,-2,1,-8,-3,1
1582297443364182,0,-2,0,-5,-7,7,-2,-2
1582297443371171,0,0,-3,-10,0,-2,-2,1
1582297443371171,0,-1,0,2,3,6,0,-2
1582297443388032,-2,-1,1,8,0,-10,-1,0
1582297443388032,0,1,-1,-2,-5,5,-1,-1
1582297443389045,0,-1,1,0,3,-1,-1,-1
1582297443389045,-1,-1,-3,-6,-3,-5,-1,-1
1582297443410067,0,0,0,0,-3,6,-1,-3
1582297443410067,1,0,0,-1,-4,-7,1,0
1582297443411993,1,-1,-3,-3,1,5,-1,0
1582297443411993,-2,-1,-1,-3,-1,-2,-2,0
1582297443433152,-3,1,3,7,0,-5,3,-2
1582297443433152,-2,-2,-1,-3,0,-4,-3,-1
1582297443433801,-3,-3,-2,1,0,-4,-1,-2
1582297443433801,0,-2,-2,-4,-2,-2,-1,-1
1582297443447953,-1,0,-2,-6,-10,1,-2,-1
1582297443447953,1,0,-3,0,8,-7,-2,-1
1582297443449362,-2,0,-1,-4,-1,8,2,-1
1582297443449362,0,0,2,9,-3,-5,-1,1
1582297443469884,-2,0,-2,-7,-2,-1,-2,-1
1582297443469884,1,0,0,-3,-1,4,0,-1
1582297443471696,0,-2,-1,-2,-3,2,0,1
1582297443471696,-1,0,-2,-1,-1,0,0,-1
1582297443483718,-1,0,0,0,2,5,0,0
1582297443483718,-1,-1,-2,1,-3,-9,-2,0
1582297443492644,-1,-2,-2,-1,-2,1,-1,-1
1582297443492644,-1,1,1,3,-2,3,-1,-2
1582297443507829,0,0,-2,4,3,-1,-1,0
1582297443507829,-1,-1,-1,1,-3,0,-3,-2
1582297443508603,1,0,0,-2,-1,-2,-1,-1
1582297443508603,0,0,-2,-1,0,-3,0,-2
1582297443529891,0,-6,-1,-8,-4,-10,-2,1
1582297443529891,1,-2,-1,0,0,25,0,0
1582297443531536,0,-1,2,10,4,-13,-3,-3
1582297443531536,-1,0,-3,-5,-1,1,1,-1
1582297443543790,0,2,-1,-2,0,0,-2,-1
1582297443543790,-3,-1,1,6,-4,-11,-1,0
1582297443552834,-2,-1,-3,-9,-12,-1,-2,0
1582297443552834,-1,-3,-3,3,18,7,0,-2
1582297443567737,-1,2,-4,-6,-4,-4,1,0
1582297443567737,-1,-2,1,-1,-1,-8,0,0
1582297443569447,0,0,-2,1,0,4,-2,-3
1582297443569447,-1,-1,-3,-2,0,-2,0,0
1582297443590377,0,-2,1,-1,0,6,-2,0
1582297443590377,0,2,-2,1,-2,-6,-1,-1
1582297443591419,0,-1,-1,-1,4,2,0,-3
1582297443591419,-1,0,-1,-5,-7,-3,-1,-1
1582297443603553,0,-2,-1,5,2,2,1,-2
1582297443603553,-1,-1,-1,-1,-2,-8,-2,2
1582297443612319,0,-3,0,2,-1,-6,-3,1
1582297443612319,-3,-1,-2,-3,-1,12,-2,-2
1582297443627509,5,-2,0,3,-3,-1,-1,0
1582297443627509,-6,0,-3,-5,0,-6,0,-2
1582297443629337,-3,-3,-2,-1,3,0,0,-1
1582297443629337,4,-1,0,-4,-6,-7,0,4
1582297443650406,-4,0,-2,2,3,2,-2,-3
1582297443650406,2,-1,-1,-2,4,3,0,-1
1582297443651892,-4,-1,-3,-2,0,0,0,-1
