timestamp,x,y,z
1582297428085858,-35.6875,114.688,-91.5625
1582297428109800,-41.4375,120,-86.875
1582297428125998,-49.375,118.25,-77.9375
1582297428146724,-58.375,116.438,-62
1582297428169635,-69.625,130.438,-37.1875
1582297428184594,-76.6875,144.438,-13.9375
1582297428206619,-91.75,152.938,-3.25
1582297428252456,-84.0625,165.875,30.8125
1582297428252456,-101.063,175.688,61.6875
1582297428267420,-116.688,191.563,96.4375
1582297428290487,-107.688,197.875,130.063
1582297428305483,-71.25,170.063,143.438
1582297428335339,-18.4375,126,151
1582297428374087,36.4375,92.9375,183.5
1582297428374087,24.1875,107.75,224.875
1582297428387088,3.25,159.938,259.438
1582297428418027,-28.9375,162.063,252.625
1582297428424960,-29.5,92.625,254.375
1582297428449886,20.625,28.5625,16.625
1582297428469842,50.375,-50.9375,2.5625
1582297428485794,-27.0625,-22.8125,-72.4375
1582297428508743,-49.375,-14.4375,-99.875
1582297428530672,-44.25,6.375,-65.8125
1582297428545871,-65.625,18.375,-26.5625
1582297428568580,-57.375,15.9375,10.25
1582297428590519,-20.4375,1,22.25
1582297428605528,12.125,-10.3125,15.625
1582297428628470,20.75,-6,6.75
1582297428651348,7.375,4.125,4.625
1582297428665318,-16.4375,8.5,4.25
1582297428694236,-16.1875,7,1.0625
1582297428711193,1.6875,2.6875,2.3125
1582297428725156,4.125,0.3125,2.375
1582297428751203,2.4375,3,-0.5
1582297428764052,-1.5625,4.3125,-1.9375
1582297428784998,-3.5625,2.9375,0.125
1582297428807129,1,3.75,-3.5625
1582297428821314,2.1875,4.1875,-1.0625
1582297428844830,-2.5,4.5,-1.6875
1582297428867204,-0.0625,3.25,-0.4375
1582297428880784,4.875,1.625,-2.25
1582297428904866,4,2.8125,-1.625
1582297428926808,0.875,4.3125,-0.4375
1582297428941631,6.5625,0.0625,0.25
1582297428964659,2.25,-1.5625,1.9375
1582297428987489,1.375,1.625,0.9375
1582297429001612,1.9375,0.0625,0.8125
1582297429024578,1.1875,0.875,1.0625
1582297429047492,0.5,0.375,0.625
1582297429061258,1.4375,-3.5,1.625
1582297429092241,-0.4375,0.5625,-2.5
1582297429107299,1.6875,-0.625,-0.0625
1582297429121091,1.25,4.1875,-3.4375
1582297429145027,-3.3125,3.25,0.1875
1582297429167177,-1,1.4375,-0.3125
1582297429181930,0.5625,0.6875,-0.8125
1582297429204979,-0.0625,0.1875,-1
1582297429226988,0.9375,0.3125,-0.8125
1582297429241774,0.1875,0.3125,-0.625
1582297429265152,0.625,0.25,-0.5
1582297429286910,-1.125,-0.1875,-0.625
1582297429301751,-0.875,-0.9375,-1
1582297429324770,-0.625,-0.6875,-0.375
1582297429347033,-1.1875,-0.125,-0.4375
1582297429362453,-1.1875,-0.25,-0.75
1582297429385440,-0.875,-1,-0.8125
1582297429407731,-0.75,-0.875,-0.75
1582297429422694,-0.6875,-0.5625,-0.5625
1582297429446221,-1.4375,-0.5,-0.1875
1582297429467234,-1.125,-0.625,-0.375
1582297429483123,-0.25,-1.5625,-0.375
1582297429506128,-0.3125,-1.3125,-0.3125
1582297429534169,-0.3125,-0.9375,0
1582297429543157,-0.75,-1.125,0.3125
1582297429565948,0.5625,-1.0625,0.0625
1582297429587304,1,-1.625,-0.25
1582297429602865,0.5625,-2.625,-0.6875
1582297429625753,-0.375,-3.875,-0.5625
1582297429655669,-1.1875,-5.4375,-0.5
1582297429670626,-5,-8.1875,-1.4375
1582297429693562,-17.4375,-6.375,-9.125
1582297429715502,-32.1875,-5.9375,-6.75
1582297429730463,15.625,-28.5625,-8.8125
1582297429753402,35.0625,-32,-36.875
1582297429775703,1.875,-42.4375,-66.125
1582297429804264,31.3125,-67.1875,-106.063
1582297429813908,24.375,-90.0625,-129
1582297429836256,7.125,-125.063,-142.75
1582297429857122,18.375,-165.875,-158.375
1582297429873079,37.5625,-205.125,-178.563
1582297429896147,50.5,-236.313,-184.688
1582297429917964,54,-251.5,-177.438
1582297429932973,60.125,-258.25,-171
1582297429955862,55.875,-262.688,-174.75
1582297429976853,64.75,-267.313,-177.188
1582297429993755,70.6875,-261.813,-167.688
1582297430015705,29.6875,-249,-154.563
1582297430036796,19.125,-232.75,-158
1582297430053597,12.5625,-219.063,-156
1582297430083515,-34.5625,-208.563,-148.438
1582297430097487,-82.0625,-188.938,-143.438
1582297430113504,-75.375,-164.875,-134
1582297430135379,-67.5625,-144.688,-124.125
1582297430157317,-64,-126.625,-113
1582297430173354,-72.125,-108.688,-97.5625
1582297430196224,-71.0625,-91.9375,-79.5
1582297430217189,-55.625,-73.8125,-65.375
1582297430233506,-35.8125,-58.6875,-50.625
1582297430256184,-22.1875,-45,-37.125
1582297430276999,-20.4375,-33.125,-25.875
1582297430294952,-21.9375,-20.75,-17.9375
1582297430316029,-20.1875,-9.875,-10.1875
1582297430336838,-12.0625,-5.5,-3.5
1582297430353614,-5.9375,0.25,1.75
1582297430375747,-0.75,4.5,-0.375
1582297430396681,-5.4375,2.25,11.375
1582297430413634,-6.875,4.75,14.6875
1582297430435830,-7.3125,7.875,15.3125
1582297430456660,-0.25,5.9375,10.4375
1582297430473769,-0.3125,6.625,9.5625
1582297430495413,1.5,2.9375,9.1875
1582297430517412,1.25,1.5625,7.1875
1582297430533371,0.3125,1.5,5.4375
1582297430556254,-1.3125,1,4.4375
1582297430578197,-0.4375,0.9375,2.125
1582297430593332,0,0.3125,0.25
1582297430616091,2.25,1.0625,-0.75
1582297430638233,1.3125,2.3125,-2.1875
1582297430652992,0.9375,2.75,-3.25
1582297430676153,2.375,3.0625,-3.5
1582297430698087,4.25,4.3125,-3.5
1582297430713032,5.0625,5.625,-2.1875
1582297430735865,7.125,6,-1.625
1582297430758716,9.5625,6.875,-1.5625
1582297430772955,7.3125,8.4375,0
1582297430796017,5.0625,8.9375,2
1582297430801664,8.8125,10.0625,4.125
1582297430823735,10,11,6.1875
1582297430840514,7.75,14.5625,8.25
1582297430861591,8.6875,16.125,7.3125
1582297430883434,6.125,13.125,13.375
1582297430900337,11.3125,12.8125,9.75
1582297430921550,5.875,10.625,11.0625
1582297430946764,11.0625,7.4375,7.8125
1582297430959175,7.5625,5.5625,9.25
1582297430981354,7.3125,3.625,7.1875
1582297431004463,5.0625,3.5,4.875
1582297431019076,1.9375,2.0625,6
1582297431041538,4.625,1.75,4.625
1582297431063898,3.6875,0,7.4375
1582297431078907,11,-1.25,5.75
1582297431101075,5.9375,1.5625,8.9375
1582297431124231,5.0625,1.5,7.75
1582297431138921,0.125,4.1875,9.5
1582297431161630,2.5,5,7.5625
1582297431183776,5.0625,2.25,7.9375
1582297431200527,6.8125,1.5625,7.5
1582297431224567,5.9375,2,7.1875
1582297431243485,3.5,2.125,6.1875
1582297431260371,3.4375,1.9375,6.25
1582297431281450,3.25,2.4375,5.6875
1582297431304514,1.9375,2.875,5.25
1582297431320215,0.4375,2.875,4.625
1582297431341339,0.625,2.125,4.5
1582297431364145,1.3125,2.125,3.4375
1582297431380055,-0.5,2.4375,2.25
1582297431401225,-0.4375,1.625,1.6875
1582297431423993,0.3125,1.3125,1.125
1582297431440267,0.8125,-0.6875,0.5625
1582297431460977,3.875,-1.1875,0.4375
1582297431483827,4.875,-1.75,1.625
1582297431499792,6,-3,3.625
1582297431521730,14.75,-5,7.4375
1582297431543626,30.5,-7.8125,14.375
1582297431561560,48.125,-16.6875,26.3125
1582297431581702,71.25,-30.0625,42.4375
1582297431603518,106.875,-42.875,59.3125
1582297431621645,134.188,-50.3125,76.3125
1582297431641413,148.5,-52.25,95
1582297431664345,159.75,-52.625,106.438
1582297431681242,158.75,-44.5,121.25
1582297431701635,143.25,-32.1875,140.563
1582297431724279,140.688,-23.25,152.375
1582297431742401,143.625,-13,157
1582297431761276,142.813,3.0625,163.375
1582297431784122,112.688,27.9375,179.75
1582297431802071,91.25,44.75,189.5
1582297431821867,115.875,46.25,181.375
1582297431843990,141.313,33.0625,175.063
1582297431861760,129.313,34.1875,173.313
1582297431881753,117.5,49.6875,166.875
1582297431903863,106.563,49.5625,148.313
1582297431922110,92.75,27.5,136.813
1582297431941556,108,28.4375,128.125
1582297431963619,117.313,48.75,115.563
1582297431981591,97.8125,44.125,103.938
1582297432002382,63.8125,21.875,88.5
1582297432023492,23.625,12.875,70.4375
1582297432041278,9,17.75,56.6875
1582297432061754,0.9375,12.0625,45.0625
1582297432084323,-27.375,2.4375,32.5625
1582297432101124,-13.9375,-2.25,22.9375
1582297432121266,-18.625,-29.125,21.0625
1582297432145009,6.125,-12.6875,36.875
1582297432161961,0.6875,-9.375,31.4375
1582297432182906,16.875,-19.4375,12.6875
1582297432204108,-4.875,-19.4375,9.9375
1582297432221803,27.625,-20.9375,13.375
1582297432242967,50.5,-16.75,19.6875
1582297432264116,40.4375,-21.8125,20.6875
1582297432281819,8.8125,-21.625,22.125
1582297432302581,-18.5625,-22.625,22.75
1582297432331677,-30.6875,-21,25.625
1582297432342047,-14.5,-20.5,24.8125
1582297432362425,-13.5625,-17.125,23.3125
1582297432384553,-36.3125,-11.9375,19.1875
1582297432400379,-33.75,-2.9375,1.5
1582297432422333,-5.375,-6.625,-14.6875
1582297432444372,15.375,4.9375,-13.25
1582297432461155,14.375,12.9375,-11.8125
1582297432485091,6.5,14.1875,-11.625
1582297432505045,-2.4375,13.375,-10.1875
1582297432520996,-2.375,10.25,-5.8125
1582297432543404,8.5,8.6875,-5.9375
1582297432557909,10.4375,8.125,-6.1875
1582297432581301,5.4375,7.4375,-7.375
1582297432609803,-1.9375,7.0625,-7.125
1582297432624770,-0.8125,6.1875,-7.9375
1582297432640678,-4.375,5,-6.9375
1582297432663615,-6.875,4.3125,-5.8125
1582297432684793,0.75,3.5,-6.3125
1582297432700519,4.5,3.625,-5.25
1582297432723731,3.875,2.8125,-4.375
1582297432737417,-0.5625,2.0625,-3.0625
1582297432760447,-3.9375,1.125,-2.25
1582297432783335,-4.8125,0.0625,-2
1582297432804379,-10,-1,-0.5625
1582297432821192,-10.5,0.1875,-1.3125
1582297432843135,-3.8125,1.125,-3.0625
1582297432864217,-2.0625,1.4375,-2.5625
1582297432880168,-1.125,1.75,-1.875
1582297432903007,0.125,1.25,-1.625
1582297432917933,0.6875,1,-1.875
1582297432940916,-1.75,0.5625,-1.75
1582297432963813,-0.6875,0.125,-1.625
1582297432985177,0.0625,0.3125,-1.5625
1582297433000716,-0.5625,-0.4375,-1.125
1582297433025651,0.125,0.0625,-1
1582297433040657,-0.9375,-0.1875,-0.4375
1582297433060552,-0.625,-4.25,2.5625
1582297433081537,-0.3125,0.4375,-0.9375
1582297433097600,0.9375,-0.3125,0.8125
1582297433120455,4.375,-0.1875,-0.625
1582297433144614,2.75,0.5625,-0.75
1582297433164274,-2.8125,0.5,0.5625
1582297433180300,-6,0.125,0.5625
1582297433201445,-5.5,-0.75,0.4375
1582297433218129,-8.8125,2,1.9375
1582297433240516,-1.6875,5.1875,-2.0625
1582297433261282,2.75,1.0625,-1.375
1582297433278131,2.75,0.3125,-0.3125
1582297433298956,0.75,0.9375,-0.9375
1582297433322057,-2.4375,0.4375,-0.75
1582297433337235,0.5625,5.0625,-5.625
1582297433359800,-0.8125,0.875,-1.1875
1582297433381845,1.0625,1.1875,-1.0625
1582297433397166,-3.5,2.25,-0.125
1582297433419802,1.125,-2.1875,-0.6875
1582297433441588,-1.5625,0.625,-1.5
1582297433457553,-2.5,0.375,-1.5625
1582297433479632,1.3125,0.6875,-1.875
1582297433502439,2.0625,0.875,-1.4375
1582297433517644,0.0625,0.6875,-0.9375
1582297433539475,-0.5625,0.375,-0.75
1582297433562410,-2.0625,-0.6875,-0.3125
1582297433577174,-2.25,-1.5625,0.3125
1582297433599373,-2.25,-2,0.3125
1582297433622269,-5.75,-2.25,1
1582297433637230,-6.6875,-2.25,0.5625
1582297433658955,-6.6875,-1.5625,-0.1875
1582297433682037,-4.1875,-0.875,-1
1582297433698295,-2.9375,-0.0625,-1.4375
1582297433719992,-0.75,0.5,-1.625
1582297433741789,-0.1875,0.6875,-1.75
1582297433758684,0.75,0.8125,-1.375
1582297433779768,0.4375,0.875,-1.0625
1582297433795590,-0.6875,0.75,-0.8125
1582297433818540,0.75,0.5625,-0.5625
1582297433839668,2.6875,0.0625,-0.375
1582297433855492,0.25,-0.0625,0.0625
1582297433878368,-2.0625,-0.6875,0.1875
1582297433899366,-2.6875,-0.875,0.0625
1582297433923516,-0.9375,-0.9375,0.25
1582297433946189,1.25,-0.3125,0.25
1582297433967184,-0.375,-0.5625,0.8125
1582297433983083,-1.75,-0.9375,1
1582297434006086,-1.625,-1.5,0.8125
1582297434027029,-0.875,-1.375,0.6875
1582297434043389,0.125,-1,0.5625
1582297434066283,-0.0625,-0.5625,0.3125
1582297434086808,-0.75,-0.875,0.625
1582297434103772,-1.125,-0.9375,0.625
1582297434125700,1.5,-0.4375,0.375
1582297434146833,0.6875,-0.3125,0.375
1582297434163604,1.125,-0.6875,0.5
1582297434185897,-0.625,-0.875,0.5625
1582297434207490,0.0625,-0.5,0.375
1582297434223765,0,-0.625,0.25
1582297434245581,-0.625,-0.4375,0.125
1582297434266328,-1.0625,-0.5,0.25
1582297434283284,0,-0.1875,0.125
1582297434306218,-0.375,-0.375,0.0625
1582297434327209,-1.5625,-0.5625,0.125
1582297434343237,-0.875,-0.1875,0.0625
1582297434366058,0.8125,-0.375,-0.125
1582297434388097,-1.375,-0.125,0
1582297434403014,-0.625,-0.4375,-0.4375
1582297434425901,-0.4375,-0.5625,-0.125
1582297434448023,-1.875,-0.5625,0.0625
1582297434469924,-1.3125,-0.1875,-0.0625
1582297434485917,-0.4375,0,0.125
1582297434508678,0.25,0.0625,0
1582297434523635,-0.1875,-0.125,-0.125
1582297434553557,-1.5,-0.125,-0.125
1582297434568523,-1.6875,-0.25,-0.25
1582297434582484,-1.3125,-1,-0.25
1582297434613402,-0.375,-0.3125,-0.375
1582297434628517,0.3125,-0.3125,-0.5
1582297434642425,-0.875,-0.3125,-0.125
1582297434666256,-0.5625,0.0625,-0.1875
1582297434688202,-0.25,-0.375,0
1582297434703156,0.1875,-0.25,-0.1875
1582297434726100,0.6875,-0.3125,-0.1875
1582297434748037,0.0625,-0.375,-0.0625
1582297434763024,-1.625,-0.5,0.125
1582297434785990,-1.5625,-0.375,0
1582297434808214,-1,-0.4375,0
1582297434822903,-1.375,-0.5,0.0625
1582297434845780,0,-0.375,-0.125
1582297434868717,0.125,-0.1875,-0.0625
1582297434890084,-0.3125,-0.0625,0.0625
1582297434905619,0.125,0,-0.0625
1582297434928560,0.0625,-0.25,0.0625
1582297434949712,0.125,-0.3125,0.0625
1582297434965733,-0.0625,-0.3125,0
1582297434988455,-0.25,-0.25,0.0625
1582297435009512,-0.5,-0.625,0.0625
1582297435025304,-0.5,-0.5,0.1875
1582297435048243,-0.25,-0.25,0.0625
1582297435069319,-0.1875,-0.25,-0.0625
1582297435086137,-1.375,-0.25,0.25
1582297435109089,-0.9375,0.25,-0.4375
1582297435130016,-2.25,-1.5625,2.375
1582297435146022,1.9375,-2.5,0.5
1582297435167912,-2.75,-1.5,2.875
1582297435189974,-0.75,0.8125,0.5625
1582297435205815,-1.5,-1.4375,0.75
1582297435228751,1.3125,0.1875,-0.5
1582297435249905,-1.75,-0.1875,1.625
1582297435265651,2.0625,-0.125,-1.6875
1582297435288648,-0.75,0.375,1
1582297435309593,1.5625,-0.875,-0.4375
1582297435325756,0.5625,0.75,0.3125
1582297435348545,-1.25,-0.8125,0.375
1582297435370556,1.875,0.3125,-0.75
1582297435386336,-2.625,-0.1875,1.4375
1582297435408272,3.1875,-0.6875,-2.625
1582297435431208,-1.1875,-4.125,2.375
1582297435446169,-2.5,1.125,-0.125
1582297435468111,0.1875,-0.125,0.0625
1582297435491097,0.4375,0,-0.1875
1582297435505014,-0.5625,-0.25,-0.125
1582297435528066,-0.0625,0,-0.3125
1582297435550941,0.125,-0.375,-0.1875
1582297435565115,-0.375,-0.1875,-0.125
1582297435588786,-0.1875,-0.4375,-0.25
1582297435610728,0,-0.4375,0.0625
1582297435624704,-0.375,-0.125,-0.1875
1582297435648625,0,0.0625,-0.125
1582297435670628,-0.125,0.0625,0
1582297435685542,0.125,-0.0625,-0.0625
1582297435708477,0.25,-0.1875,-0.25
1582297435730572,-0.125,-0.0625,-0.1875
1582297435745368,-0.125,-0.0625,-0.25
1582297435768367,-0.25,-0.125,-0.25
1582297435791263,0.125,-0.125,0.0625
1582297435805272,0.5,-0.0625,0
1582297435813075,0.125,-0.25,0
1582297435834508,0.0625,-0.25,0.0625
1582297435856211,-0.0625,-0.375,-0.0625
1582297435873070,-0.625,-0.1875,0.1875
1582297435894379,-0.375,-0.5,0.0625
1582297435916195,0,-0.375,0.125
1582297435934420,-0.375,-0.5625,0.25
1582297435954037,-0.875,-0.0625,0.1875
1582297435975816,-1.625,-0.625,0.3125
1582297435992755,-1.5625,-0.625,0.125
1582297436013837,-0.6875,-0.5,0.125
1582297436036590,-0.0625,-0.5625,0.0625
1582297436052679,0.3125,-0.125,0
1582297436073855,-0.1875,-0.0625,0.125
1582297436096577,-0.5625,-0.0625,0
1582297436114386,0.1875,0.0625,-0.0625
1582297436133514,0.9375,-0.1875,0.0625
1582297436156464,0.125,0.125,0.125
1582297436172227,-0.3125,-0.25,0.0625
1582297436194226,-0.375,-0.375,0.4375
1582297436224099,-0.125,-0.375,0.0625
1582297436233062,-0.3125,-0.1875,0
1582297436254204,0.5625,0,0
1582297436276008,1.375,-0.125,0.125
1582297436293899,0.125,-0.125,0.0625
1582297436314049,-0.9375,-0.3125,0.0625
1582297436336794,-0.625,-0.3125,-0.1875
1582297436354558,-0.4375,-0.3125,-0.0625
1582297436373735,-0.0625,-0.4375,-0.0625
1582297436396685,-0.125,-0.375,-0.0625
1582297436414577,-0.0625,-0.1875,-0.125
1582297436433917,0.125,0.125,-0.1875
1582297436456667,-0.125,-0.125,-0.125
1582297436474542,-1.0625,-0.25,0.0625
1582297436493806,0,-0.1875,0
1582297436516499,0.375,-0.375,0
1582297436534258,-1.0625,-0.1875,0.125
1582297436554556,-0.75,0.1875,-0.125
1582297436576280,-0.3125,0,-0.0625
1582297436594099,0,-0.375,0.0625
1582297436614225,-0.0625,-0.3125,-0.0625
1582297436636565,-1.0625,-0.4375,0
1582297436653940,-1,-0.4375,-0.0625
1582297436674108,-0.25,-0.3125,0.0625
1582297436696300,0.25,-0.4375,0.0625
1582297436713777,1.0625,-0.25,0.25
1582297436733857,0.125,0,0.1875
1582297436756773,-0.4375,-0.0625,0.0625
1582297436774882,-0.375,-0.4375,0.1875
1582297436793697,-0.5,-0.5625,0.125
1582297436816507,-0.125,-0.4375,0.125
1582297436834459,-0.375,-0.1875,0.0625
1582297436853599,0.25,-0.375,0.125
1582297436876553,0.1875,-0.125,0.125
1582297436894473,0.75,-0.1875,0.125
1582297436915246,0.3125,-0.1875,0.1875
1582297436936348,-0.25,-0.3125,0.25
1582297436954141,-0.75,-0.5,0.125
1582297436975181,0.1875,-0.25,-0.0625
1582297436996069,0.0625,-0.25,0.125
1582297437014177,0.125,-0.125,-0.0625
1582297437035180,-0.125,-0.1875,0.1875
1582297437056068,-0.0625,0,-0.0625
1582297437073811,-0.375,-0.1875,0.125
1582297437095124,0,-0.125,-0.0625
1582297437115703,0.625,-0.375,0.1875
1582297437134444,0.1875,0.125,0.125
1582297437155602,-0.3125,-0.3125,0
1582297437176870,-0.3125,-0.25,0.0625
1582297437194088,0.8125,-0.4375,0.125
1582297437216483,0.125,0,0.0625
1582297437236740,-0.625,-0.125,0.0625
1582297437254341,0.125,-0.1875,-0.0625
1582297437276541,0.125,-0.125,0.0625
1582297437296414,-0.375,0,0.0625
1582297437314173,-0.6875,-0.3125,0.0625
1582297437336506,-0.375,-0.25,-0.1875
1582297437356547,0.125,-0.375,-0.25
1582297437374548,0.5,-0.1875,-0.1875
1582297437396948,0,0.125,-0.1875
1582297437416175,0.4375,0.1875,-0.25
1582297437433038,0.125,-0.125,-0.25
1582297437456161,0.1875,-0.125,-0.25
1582297437477258,1,-0.1875,-0.25
1582297437493695,0.1875,-0.0625,0
1582297437515646,-0.1875,0.0625,0
1582297437537082,-0.125,0,-0.0625
1582297437553598,0.0625,-0.125,0.0625
1582297437575470,0.375,0,-0.0625
1582297437590430,1.125,-0.125,-0.125
1582297437613438,-0.5,-0.3125,0.0625
1582297437635485,-1.0625,-0.1875,-0.0625
1582297437650490,-0.5,-0.375,0.0625
1582297437673417,-0.75,-0.4375,0.375
1582297437696154,-1.9375,-0.4375,0.5625
1582297437710112,-4.6875,0.0625,0.375
1582297437733314,-8.1875,0.3125,0.1875
1582297437756055,-10.75,1.0625,0
1582297437777379,-11.5,1.5625,-0.0625
1582297437792890,-14,1.625,-0.3125
1582297437815831,-16.75,0.6875,-0.5
1582297437836967,-17.3125,-0.375,-1.1875
1582297437853726,-13.625,-0.375,-3.5625
1582297437875845,-12.5625,-1.375,-5.9375
1582297437896755,-11.25,-1.9375,-8.125
1582297437913770,-13.0625,-2.375,-10.5625
1582297437935570,-18.1875,-3.1875,-10.6875
1582297437956657,-20.6875,-1.5625,-12.0625
1582297437972615,-14.75,1.125,-12.75
1582297437995412,-6.0625,2,-12.4375
1582297438017452,-2.125,4.8125,-13.625
1582297438032311,-3.875,7.0625,-14.875
1582297438056184,-8.6875,9.1875,-15.75
1582297438077325,-22.4375,12.25,-16.5
1582297438092093,-34.125,14.625,-15.9375
1582297438116220,-21.125,16.25,-13.3125
1582297438137177,-0.375,17,-11.4375
1582297438160905,10.6875,17.3125,-9.625
1582297438175867,9.5,17.5,-7.125
1582297438198003,7.4375,16.375,-6.625
1582297438212986,3.375,14.8125,-6.0625
1582297438235710,5.3125,13.125,-6.25
1582297438258646,3.3125,9.5625,-6.1875
1582297438273616,3.8125,7.4375,-7.375
1582297438295544,2.75,6.3125,-8.375
1582297438318546,0.6875,5.1875,-8.625
1582297438332449,0.8125,3.6875,-8.6875
1582297438355568,0.9375,2.5625,-7.25
1582297438378387,4.125,2.0625,-6.25
1582297438392519,5.625,1.6875,-5.125
1582297438416222,6.25,1.0625,-3.3125
1582297438438382,6.3125,-0.5,-1
1582297438452332,7.75,-1.75,1.375
1582297438476069,7.3125,-3.8125,3.9375
1582297438498173,5.3125,-6.0625,5.8125
1582297438512968,-1.1875,-8.25,8
1582297438535949,-4.8125,-9.9375,8.8125
1582297438558332,-6.5,-10.5,9.25
1582297438572864,-2.3125,-10.25,10.4375
1582297438595972,2.9375,-9.75,11.75
1582297438618678,4.4375,-9.25,13.5625
1582297438632706,2.125,-7.8125,15.1875
1582297438655838,1,-6.0625,16.0625
1582297438678527,1.1875,-4.8125,16.3125
1582297438699652,2.625,-4.125,17.1875
1582297438715935,5.6875,-4.1875,17.8125
1582297438738541,2.875,-5.3125,17.4375
1582297438759337,-4.4375,-3.8125,16.875
1582297438775312,0.8125,-5.625,15.875
1582297438799264,-0.1875,-7.1875,15.1875
1582297438819677,-2.3125,-6.6875,14.25
1582297438836144,-3.375,-7.5,14.25
1582297438858038,0.0625,-7.75,15.6875
1582297438879406,7.9375,-6.3125,15.75
1582297438895981,9.125,-5.875,17.0625
1582297438918016,8.5625,-5.8125,18.25
1582297438940145,6.8125,-4.9375,19.5
1582297438954934,11.0625,-4.1875,19.0625
1582297438978723,19.6875,-4.0625,17.25
1582297438999855,15.75,-4.3125,16.75
1582297439015620,10.4375,-3.25,15.8125
1582297439038606,5.5625,-4.6875,15
1582297439059651,3.3125,-4.8125,13.75
1582297439075456,10.375,-2.9375,11.3125
1582297439098404,10.625,-1,10.75
1582297439119510,12.8125,1.1875,9.375
1582297439135561,9.375,2.8125,8.125
1582297439158241,5.3125,4,6.5
1582297439181182,9.5,2.625,6.1875
1582297439196141,13.875,3.125,4.4375
1582297439218076,9.8125,4.375,0.4375
1582297439241027,7.625,5.6875,-0.8125
1582297439254977,1.8125,4.9375,-6
1582297439277964,2.625,13.3125,-3.75
1582297439300917,-3.625,5.4375,-10.0625
1582297439314815,6.9375,11.8125,-8.6875
1582297439337951,-12,10.375,-11.3125
1582297439360700,-6.75,14.8125,-13.6875
1582297439381834,-3.75,13.8125,-14.75
1582297439398604,-4.3125,13.75,-14
1582297439420598,-7.625,12.5625,-14.1875
1582297439441522,-12.75,11.4375,-15.25
1582297439458431,-5.25,10.25,-15.5
1582297439480546,-5.5625,9.4375,-16
1582297439502314,-7.6875,7.625,-16.0625
1582297439518280,-15.875,5.8125,-15.125
1582297439541213,-15.375,3.6875,-14.1875
1582297439562288,-8.9375,3.6875,-13.8125
1582297439578287,-4.6875,2.9375,-12.0625
1582297439601119,-5,1.125,-8.6875
1582297439622165,-3.75,1.6875,-8
1582297439638011,-1.9375,1.5,-6.75
1582297439660890,-0.875,1.625,-6.875
1582297439682231,-0.375,1.0625,-6.6875
1582297439698791,0.8125,1.5625,-7.3125
1582297439721002,2.75,0.125,-6.6875
1582297439741678,-0.8125,-0.75,-4.875
1582297439758630,-1.4375,-0.25,-4.1875
1582297439780629,-6.1875,-0.1875,-3
1582297439801779,-10.625,-0.5,-1.1875
1582297439818478,-11.375,-0.0625,-1.0625
1582297439840425,-7.875,1.75,-1.8125
1582297439861355,1.0625,2.4375,-2.0625
1582297439878550,7.6875,2.9375,-3.5625
1582297439900454,11.1875,3.5625,-4.0625
1582297439922389,9.1875,3.8125,-3.625
1582297439938153,10.25,5.5625,-5.5625
1582297439961089,9.3125,6,-5.9375
1582297439982279,8.125,4.6875,-4.9375
1582297439998055,6.25,3.4375,-3.75
1582297440021209,7.0625,1.875,-2.4375
1582297440041908,4.5,0.6875,-0.75
1582297440058103,0.5,0,0.375
1582297440081070,-3.6875,-1.125,1.125
1582297440103706,-3.4375,-2.5625,1.8125
1582297440118676,-4.25,-3.1875,2.0625
1582297440140608,-6.75,-4.1875,2.25
1582297440163543,-6.625,-4,2.25
1582297440178588,-3.875,-3.875,2.6875
1582297440200578,-0.8125,-3.3125,2.875
1582297440223383,1.125,-2,2.8125
1582297440237773,2.5,-0.8125,2.625
1582297440260477,4.25,-0.4375,2.25
1582297440283229,6.25,-0.375,2.25
1582297440297606,7.8125,-0.125,1.9375
1582297440321125,6.4375,0.8125,1.625
1582297440343268,5.75,0.9375,1.8125
1582297440358025,5.875,-0.125,2.9375
1582297440380995,7.25,0.3125,2.5
1582297440403039,6.9375,0.0625,2.5
1582297440418104,2.75,0.0625,2.3125
1582297440440804,0.875,-0.625,2.4375
1582297440462758,2.0625,-1.125,2.4375
1582297440477713,3,-1.0625,1.875
1582297440500649,2.375,-1.0625,1.3125
1582297440523586,1,-1.5625,1.0625
1582297440537758,0.125,-1.875,0.8125
1582297440560533,-0.6875,-1.75,0.6875
1582297440583471,-0.375,-1.0625,0.25
1582297440604591,-0.625,-1,0.75
1582297440620739,2.1875,-0.3125,0.75
1582297440643461,2.3125,-0.1875,1.125
1582297440664207,1.375,-0.125,1.375
1582297440681163,1.25,-0.0625,1.125
1582297440704108,0.3125,-0.25,1.3125
1582297440724171,1.9375,-0.4375,1.4375
1582297440741015,1.6875,-0.375,1.25
1582297440762970,-0.5,-0.375,1.25
1582297440784931,-0.25,-0.3125,0.6875
1582297440801124,1.8125,-0.125,0.3125
1582297440822827,0.3125,-0.375,0.8125
1582297440828983,1.6875,0.125,0.1875
1582297440851713,0.0625,0.125,0.25
1582297440866737,0,-0.375,0.375
1582297440888809,-0.375,-0.4375,0.0625
1582297440911740,-0.6875,-0.4375,-0.0625
1582297440926574,0.125,-0.4375,-0.3125
1582297440948512,-0.125,0,-0.4375
1582297440971816,-0.875,-0.4375,-0.1875
1582297440986554,1,0,0
1582297441008284,2,0.375,-0.3125
1582297441034222,2,0.125,0
1582297441046586,1.5625,0.25,0.125
1582297441069262,1.1875,0.625,-0.4375
1582297441094193,-0.1875,0.0625,-0.25
1582297441106080,-1.1875,-0.6875,0.25
1582297441129166,1.3125,-0.75,-0.0625
1582297441151115,0.75,0.125,-0.25
1582297441166011,-0.5,0.4375,0.25
1582297441189018,-0.75,-0.1875,0.5
1582297441206755,0.1875,-0.125,0.125
1582297441226703,1.125,-0.125,0
1582297441248877,0,-0.5,0
1582297441266603,-0.1875,-0.4375,0.0625
1582297441286755,-0.375,-0.3125,-0.125
1582297441308618,0.3125,-0.375,0.125
1582297441327004,0.5625,-0.0625,-0.1875
1582297441346508,-0.25,-0.25,0.0625
1582297441369379,0,-0.4375,0.125
1582297441386938,-0.6875,-0.375,0.375
1582297441406230,0.25,-0.5,0.25
1582297441429161,0,-0.4375,0.375
1582297441446571,0.4375,-0.375,0.375
1582297441466118,0.8125,0.125,0.25
1582297441491992,-0.1875,0.1875,0.125
1582297441506957,1.0625,-0.125,0.1875
1582297441526344,1.1875,0.1875,0.1875
1582297441549042,0.5625,0.125,0.375
1582297441567072,0,-0.25,0.75
1582297441586786,0.4375,0.25,0.5
1582297441608921,0.875,0.25,0.375
1582297441626638,-0.125,0,0.5
1582297441647639,0.3125,-0.1875,0.75
1582297441668713,0.4375,-0.0625,0.5
1582297441686641,0.125,-0.4375,0.3125
1582297441707548,-0.5,-0.4375,0.625
1582297441736554,-0.1875,-0.25,0.625
1582297441746381,0.8125,0,0.5
1582297441769251,0.875,0.125,0.375
1582297441789276,0.8125,0.625,0.375
1582297441806652,-0.5625,0.1875,0.5625
1582297441827274,0.25,-0.1875,0.5625
1582297441849265,1.1875,-0.1875,0.375
1582297441866182,0.375,-0.3125,0.4375
1582297441887997,-0.375,-0.1875,0.25
1582297441909076,-0.625,0.25,0.125
1582297441926843,1.125,0.25,0
1582297441947840,0.6875,-0.125,0.3125
1582297441968944,1,0.3125,-0.125
1582297441986669,0.75,0,-0.1875
1582297442016590,0.625,0,0.0625
1582297442031933,0,-0.1875,0.375
1582297442046510,-0.0625,0.3125,0
1582297442069446,-0.6875,0.25,0
1582297442089394,-0.125,-0.3125,0.1875
1582297442107012,-0.3125,-0.1875,0.125
1582297442129287,0,-0.25,0.0625
1582297442148455,0.5625,0.125,0.0625
1582297442166188,0.0625,0.375,0.0625
1582297442189137,0.625,0.1875,-0.125
1582297442209098,0,0.125,0.25
1582297442227030,1.0625,0.125,0.375
1582297442249531,1.125,0.3125,0.375
1582297442269106,-0.25,0.1875,0.6875
1582297442286873,-2.0625,0,1.0625
1582297442308805,-1.6875,0.125,0.9375
1582297442328953,-2.4375,-0.1875,0.9375
1582297442346905,-2.5,-0.8125,1.3125
1582297442368953,-0.125,-0.3125,0.875
1582297442388785,0.25,0,0.8125
1582297442406609,1.125,-0.125,0.5625
1582297442429553,0.875,0.5,0.125
1582297442449482,0.875,0.1875,0.125
1582297442465586,0.875,0.5625,0.1875
1582297442488394,0.5625,0.125,0.375
1582297442509489,0.5,-0.1875,0.5
1582297442526226,-0.0625,-0.1875,0.125
1582297442548170,-1.0625,-0.25,0.125
1582297442571103,-1.875,-0.75,0.1875
1582297442586066,-0.9375,-0.5625,-0.3125
1582297442608063,-1.125,-0.625,-0.1875
1582297442629994,-0.75,-0.5,-0.25
1582297442645905,-0.125,-0.1875,-0.25
1582297442668047,1,-0.375,-0.25
1582297442689797,-0.25,0.1875,-0.375
1582297442713090,-1.375,-0.1875,0
1582297442727843,0.1875,-0.375,-0.0625
1582297442749825,0.9375,-0.375,-0.125
1582297442765592,-0.375,-0.3125,-0.1875
1582297442788596,-1.375,0,-0.375
1582297442809713,-0.625,0.125,-0.5
1582297442825691,-1,-0.125,-0.4375
1582297442848658,0.125,-0.4375,-0.375
1582297442869524,0.75,-0.4375,-0.5
1582297442885463,1.1875,-0.125,-0.25
1582297442908381,-0.0625,-0.0625,-0.125
1582297442931172,-0.875,0.0625,-0.0625
1582297442946103,-0.75,-0.1875,0.0625
1582297442968066,0.875,-0.125,-0.0625
1582297442991045,0,-0.1875,0.0625
1582297443005942,-0.875,-0.625,-0.0625
1582297443027929,-0.375,-0.125,-0.4375
1582297443050864,-0.375,-0.0625,0.125
1582297443064788,0.5625,-0.25,-0.0625
1582297443088719,0.125,-0.125,0
1582297443110726,-1.25,-0.125,0
1582297443124652,-0.6875,-0.1875,0
1582297443155540,-1.125,0,-0.0625
1582297443170516,-0.125,0.125,-0.1875
1582297443185485,-0.3125,-0.3125,0.125
1582297443208405,0.4375,0.3125,-0.1875
1582297443230384,0.875,0.1875,0
1582297443245300,0.0625,-0.1875,0.25
1582297443268255,-0.375,0,0.1875
1582297443291177,-0.3125,0.3125,0.25
1582297443305361,0.5,-0.0625,0.0625
1582297443328326,0.9375,0,0.1875
1582297443351019,-1.125,-0.1875,0.1875
1582297443364988,-1.3125,-0.0625,-0.0625
1582297443388032,-1.3125,-0.3125,-0.0625
1582297443410911,-1.1875,-0.4375,0.0625
1582297443433152,-0.5625,-0.6875,0
1582297443447953,-0.75,-0.5625,0
1582297443470703,-0.6875,0,-0.3125
1582297443491711,-0.4375,0.0625,-0.5625
1582297443508603,-1.375,-0.1875,0.125
1582297443530543,0,-0.3125,-0.125
1582297443552487,0.1875,-0.5625,0
1582297443568499,-1.3125,-0.25,0.25
1582297443590609,-1.125,-0.1875,0
1582297443611757,-0.9375,-0.1875,0.125
1582297443628341,0.0625,0.125,0
1582297443651215,0.4375,0,0.0625
1582297443679343,0.5625,0.1875,-0.0625
1582297443696102,-1.0625,-0.375,0.25
1582297443711060,-0.25,-0.125,-0.0625
1582297443732187,0.25,0.0625,-0.0625
1582297443748201,-0.4375,-0.375,0.125
1582297443771174,-0.625,-0.0625,0.0625
1582297443792297,-0.0625,-0.125,-0.125
1582297443807855,1,-0.125,-0.0625
1582297443830739,0.375,0.25,-0.1875
1582297443852159,0.5625,-0.125,0.0625
1582297443868633,0.125,0.0625,0
1582297443890572,0.0625,0,-0.1875
1582297443913514,-0.0625,-0.3125,-0.0625
1582297443928489,0.4375,-0.125,-0.1875
1582297443950768,-0.75,-0.125,-0.1875
1582297443973363,-0.75,-0.125,-0.25
1582297443988512,0.875,-0.1875,0.125
1582297444010449,0.75,0.25,0
1582297444041176,1.875,0.125,-0.25
1582297444047329,0.5625,0,0.125
1582297444071145,-0.25,0.125,0.3125
1582297444093032,0.9375,0.4375,0.0625
1582297444107999,1.5,0.5625,0.125
1582297444137150,0.5625,0.4375,0.125
1582297444153039,-0.8125,-0.125,0.1875
1582297444175875,-0.375,0.0625,-0.1875
1582297444190828,-1.125,-0.0625,-0.25
1582297444213711,-0.375,-0.1875,-0.1875
1582297444235804,0.0625,-0.125,-0.1875
1582297444250617,1.125,0.3125,-0.3125
1582297444273612,0.6875,0.1875,-0.125
1582297444287516,0.25,0.625,-0.3125
1582297444311635,1.0625,0.375,-0.125
1582297444333458,0.9375,-0.0625,0.25
1582297444347413,-0.375,-0.125,0.375
1582297444370480,-0.3125,0.125,0.0625
1582297444393275,-0.1875,0.375,0.1875
1582297444414242,0.375,0.3125,0.125
1582297444431127,0.1875,0,0.375
1582297444453310,0.6875,0.1875,-0.0625
1582297444474845,0,0.0625,0.125
1582297444490966,0,-0.0625,0.25
1582297444512974,0.375,-0.0625,0.25
1582297444542198,1,0.0625,0.1875
1582297444551009,0.3125,0.5,-0.125
1582297444573480,0.125,0.0625,0.3125
1582297444594757,1.25,0.3125,0.1875
1582297444610652,1,0.4375,0.0625
1582297444633584,0.625,0.625,0.125
1582297444654734,0.5625,0.3125,0.25
1582297444670757,0.5,0.0625,0.1875
1582297444693440,0.625,0,0
1582297444714591,-0.5,0.125,0.125
1582297444730774,-0.0625,-0.125,0.375
1582297444753568,0.8125,-0.125,0.25
1582297444774213,-0.1875,-0.1875,0.4375
1582297444791169,0.75,0.25,0.1875
1582297444813258,0.6875,-0.125,0.4375
1582297444836088,-0.375,-0.3125,0.8125
1582297444851051,-0.4375,0.0625,0.5625
1582297444872953,-0.6875,-0.0625,0.5625
1582297444895885,1.3125,0,0.6875
1582297444909847,1.1875,0,0.8125
1582297444932981,0.875,0.3125,0.5625
1582297444955726,-0.4375,0,0.25
1582297444969881,-0.6875,-0.1875,0.125
1582297444993629,-0.5,-0.5,0
1582297445015574,-0.5,-0.5,-0.125
1582297445030532,-0.125,-0.5625,-0.25
1582297445053723,-1.25,-0.3125,-0.0625
1582297445075462,-0.9375,-0.1875,-0.0625
1582297445090370,-0.4375,-0.1875,0
1582297445113372,-0.375,-0.3125,0.125
1582297445135804,-0.0625,-0.5,0.0625
1582297445150451,-1.5625,-0.1875,0.0625
1582297445173324,-1.875,-0.4375,0.0625
1582297445196081,-1.1875,-0.375,0.0625
1582297445210201,-0.75,-0.1875,-0.0625
1582297445233046,-1.1875,-0.3125,0
1582297445255938,-0.75,-0.375,-0.3125
1582297445269891,-0.6875,-0.5625,-0.125
1582297445292936,-0.9375,-0.4375,-0.1875
1582297445315805,-1.0625,-0.25,-0.25
1582297445345138,-0.75,-0.4375,-0.1875
1582297445353661,0.375,-0.1875,-0.0625
1582297445375609,-0.625,-0.0625,0
1582297445396940,0,-0.125,0
1582297445413499,-0.625,0.0625,-0.125
1582297445435529,0.125,0,-0.1875
1582297445457390,-0.375,-0.1875,-0.125
1582297445473338,-0.25,-0.0625,-0.375
1582297445495739,-1,-0.0625,-0.25
1582297445517438,-0.625,-0.4375,-0.375
1582297445533198,-1.0625,-0.0625,-0.3125
1582297445556125,0.0625,-0.1875,-0.1875
1582297445577210,-0.5625,-0.0625,0
1582297445593032,-0.6875,-0.1875,-0.0625
1582297445616026,-0.8125,-0.4375,0.125
1582297445637102,-0.6875,-0.875,-0.25
1582297445652996,-1.25,-0.4375,0.125
1582297445682996,-1.0625,-1.125,0.3125
1582297445696787,-0.6875,-0.875,0
1582297445713699,-0.25,-0.375,-0.0625
1582297445735837,-1.1875,-0.25,-0.1875
1582297445756710,-1.375,-0.625,-0.3125
1582297445773687,-1.5625,-0.8125,-0.25
1582297445795485,-1.0625,-0.75,-0.1875
1582297445818645,-2.25,-0.9375,-0.375
1582297445833432,-1.75,-0.6875,0.0625
1582297445855327,-1.1875,-0.4375,0
1582297445861496,-0.5625,0.25,-0.375
1582297445884295,-0.125,0.0625,-0.25
1582297445901441,-0.4375,-0.125,0.25
1582297445929120,0.0625,-0.125,0.1875
1582297445944084,-0.9375,0.125,0
1582297445959237,-1.9375,0,-0.0625
1582297445981039,-1.5625,0.125,-0.0625
1582297446004118,-0.25,0,-0.375
1582297446019091,-0.75,-0.0625,-0.4375
1582297446041190,-0.625,-0.25,-0.375
1582297446063976,-0.125,-0.25,-0.375
1582297446078931,-0.125,0,-0.25
1582297446101723,-0.25,-0.1875,0
1582297446123597,0.1875,0,-0.125
1582297446138751,-0.375,-0.0625,-0.0625
1582297446161831,-0.4375,-0.25,0.125
1582297446183766,0.0625,-0.1875,-0.0625
1582297446206386,-0.3125,-0.1875,-0.125
1582297446221540,-0.8125,-0.0625,0
1582297446243492,-0.25,-0.1875,0.0625
1582297446258725,-0.25,-0.125,-0.0625
1582297446281372,-0.375,-0.375,-0.0625
1582297446304115,-0.6875,-0.375,-0.0625
1582297446319197,-0.3125,-0.125,-0.0625
1582297446341084,0.0625,-0.1875,0
1582297446363955,-0.5,0,0.125
1582297446379972,-0.9375,0.0625,0.0625
1582297446401064,-0.25,-0.0625,0.3125
1582297446423986,0.9375,-0.125,0.3125
1582297446439759,-0.0625,-0.125,0.375
1582297446461703,0.6875,-0.25,0.1875
1582297446483795,0,0.1875,0.3125
1582297446500171,-0.375,0.3125,0
1582297446521893,0.5,0.375,0
1582297446543855,0.25,0.1875,0
1582297446560430,-1,0,0.0625
1582297446581595,-1.3125,-0.1875,-0.3125
1582297446603519,-2,-0.375,-0.25
1582297446620325,-0.75,-0.625,0
1582297446641372,0.625,-0.3125,-0.1875
1582297446663633,-0.4375,0.1875,-0.1875
1582297446681107,-0.625,0.3125,-0.25
1582297446701555,0.0625,0.125,-0.125
1582297446724013,0.25,0,0
1582297446741952,0.25,0.0625,-0.3125
1582297446763886,-0.4375,0,-0.125
1582297446778852,-0.625,-0.1875,0
1582297446802028,-0.625,0.125,0
1582297446821744,-0.6875,0.3125,-0.1875
1582297446839112,0.1875,0.0625,-0.25
1582297446861719,-0.0625,-0.0625,-0.125
1582297446881979,-0.1875,0,-0.0625
1582297446899524,-0.375,-0.0625,-0.25
1582297446921472,-0.4375,-0.125,0
1582297446941594,-1.0625,-2.6875,4.5
1582297446959369,-5.25,-6,5.6875
1582297446981801,-5.3125,-2.4375,4.5
1582297447001524,12.3125,1.25,-3
1582297447019202,-7.125,0.4375,-0.125
1582297447041150,0.0625,-0.25,-0.125
1582297447061551,1.75,2.1875,-2.5
1582297447079043,2.9375,2.9375,-4.25
1582297447101995,-5.75,1.875,-2.3125
1582297447121381,0.375,1.8125,-2.8125
1582297447138888,0.25,2.25,-3.375
1582297447161822,-1.0625,1.875,-2.375
1582297447181798,-4.9375,-0.75,-0.125
1582297447198725,-2,-1.6875,1
1582297447221696,-1.5,-1.875,1.25
1582297447241669,-2.5,-2.375,2.0625
1582297447258572,0.6875,-1.375,1.9375
1582297447281500,1.6875,-1,0.6875
1582297447301615,6.125,0.625,-0.0625
1582297447319960,2.8125,1.3125,-1.4375
1582297447341342,2.5625,1.4375,-1.0625
1582297447362292,0.1875,1,-0.5625
1582297447379245,-1.125,0.75,-0.0625
1582297447401492,-0.8125,-0.125,0.4375
1582297447422132,-2.25,-0.5,0.9375
1582297447439327,-3.125,-1.0625,1.25
1582297447461471,-0.5,-1,1.125
1582297447482962,-0.625,-0.9375,0.625
1582297447498051,0.875,-0.1875,0.3125
1582297447521141,1.875,0.125,-0.4375
1582297447542298,1.625,0.75,-0.375
1582297447565745,0.625,0.5,-0.3125
1582297447580709,0.0625,0.4375,-0.375
1582297447601872,1.0625,-0.1875,-0.3125
1582297447618607,-1.5625,-0.75,0.3125
1582297447640714,-1.4375,-0.6875,0.4375
1582297447663479,-1.4375,-0.6875,0.6875
1582297447678446,-0.0625,-0.0625,0.1875
1582297447700523,-0.3125,0.1875,0
1582297447723326,1.875,1,-0.5
1582297447738488,2.0625,0.9375,-0.8125
1582297447760436,1.0625,0.75,-0.5625
1582297447783160,-0.5,0.1875,-0.3125
1582297447798270,-0.875,-0.125,0.0625
1582297447821059,-0.0625,-0.3125,-0.0625
1582297447843260,0.125,-0.25,0.125
1582297447857966,-0.375,-0.0625,0.0625
1582297447880930,0.875,0.5625,-0.25
1582297447902835,1.625,0.6875,-0.5
1582297447917867,1.3125,0.625,-0.5
1582297447940742,0.9375,0.1875,-0.6875
1582297447963681,0.0625,0,-0.4375
1582297447977708,-0.1875,-0.0625,-0.3125
1582297448000581,0.25,0,-0.0625
1582297448023671,-0.0625,-0.0625,-0.125
1582297448037716,0.0625,0.25,-0.125
1582297448060752,1.125,0.375,-0.0625
1582297448083355,1.3125,0.1875,0
1582297448097619,1.125,0.25,0.125
1582297448121254,0.4375,0,0.1875
1582297448151183,0.375,0.25,0
1582297448164418,-0.3125,0,0.125
1582297448181101,0,0.125,0.1875
1582297448203044,1.625,0,0.125
1582297448224225,2.8125,0.5,0.125
1582297448240934,2.5625,0.8125,-0.0625
1582297448262926,2.8125,0.9375,-0.125
1582297448284874,3,1.0625,-0.25
1582297448300778,2.875,0.6875,0.5
1582297448323722,4.3125,1.375,0.1875
1582297448344842,3,1.5625,0.125
1582297448360793,1.75,1.1875,0.0625
1582297448383552,2.375,0.6875,0.0625
1582297448404588,2.1875,0.3125,0.25
1582297448428435,1.6875,0.4375,-0.125
1582297448443399,1.1875,0.75,-0.375
1582297448464571,0.875,0.125,0.0625
1582297448480474,2.1875,0.5625,0.3125
1582297448511276,2.875,1.1875,0.25
1582297448524520,2.125,1.125,0.1875
1582297448541138,1.875,1.0625,0.1875
1582297448563078,1.0625,0.3125,0.4375
1582297448584217,1.25,0.5,0.1875
1582297448601029,0.1875,0.125,0.375
1582297448622915,1.3125,0.375,0.125
1582297448645858,1.0625,0.4375,0.375
1582297448660865,2.125,0.75,0.1875
1582297448683095,2.125,0.9375,0
1582297448706284,1.125,0.6875,0.0625
1582297448720691,-0.625,0.125,0.1875
1582297448743590,0.25,0.4375,0.0625
1582297448765532,-0.625,0,0.3125
1582297448780490,-0.4375,0.125,0.3125
1582297448803691,-0.625,0.3125,0.25
1582297448825496,0.4375,0.5,0.3125
1582297448840330,0.125,0.0625,0.8125
1582297448863344,1.5625,0.75,0.5
1582297448886215,1.4375,0.8125,0.5625
1582297448900229,1.4375,1,0.5
1582297448923108,0.9375,0.75,0.6875
1582297448946055,2,0.5625,0.625
1582297448960014,2.6875,0.6875,0.3125
1582297448983152,1.9375,1.0625,0.5
1582297449005887,1.9375,1,0.4375
1582297449019865,1,0.5,0.875
1582297449042970,1.625,0.625,0.8125
1582297449065738,2,0.5625,0.5
1582297449080046,3.3125,0.75,0.8125
1582297449103628,2.5625,0.875,1
1582297449125573,0.8125,0.6875,0.9375
1582297449146590,1.25,0.75,1
1582297449163471,1.625,0.5,0.875
1582297449185466,1.4375,0.4375,1.125
1582297449206397,0.6875,0.375,0.8125
1582297449223304,-0.5,0.25,0.625
1582297449246285,0.0625,0.25,0.1875
1582297449267219,0.8125,-0.125,0.25
1582297449283150,0.8125,0,0.25
1582297449306090,0.8125,0.375,-0.0625
1582297449327241,0.0625,0.75,-0.1875
1582297449342998,0.3125,0.125,0.375
1582297449365992,-0.5,0.125,0.6875
1582297449387069,-0.4375,-0.125,1
1582297449402964,0.6875,0.125,1.1875
1582297449425770,1.1875,0.3125,1.5
1582297449447175,0.125,0.75,1.375
1582297449463664,0.5,0.8125,1.5
1582297449485880,0.9375,0.625,1.5625
1582297449506585,0.8125,0.75,1.375
1582297449522504,1.6875,0.4375,1.5625
1582297449545452,0.5625,0.25,2.0625
1582297449568448,-0.1875,0.25,2.1875
1582297449583617,0.5,0.3125,1.75
1582297449605671,-0.25,-0.125,1.875
1582297449628239,0.25,-0.0625,2.0625
1582297449643288,1.1875,0.3125,1.8125
1582297449666131,1.8125,0.6875,2.1875
1582297449688247,2.0625,0.9375,2.375
1582297449703023,2.6875,1.1875,2.25
1582297449725968,1.4375,1.0625,2.25
1582297449748020,0.1875,0.8125,2.1875
1582297449762863,1.125,0.6875,1.75
1582297449786211,0.4375,0.3125,1.875
1582297449815731,-0.1875,0.0625,1.5
1582297449822703,0.6875,-0.25,1.25
1582297449845643,-1.1875,-1,1.9375
1582297449868623,0.4375,-2.375,2.4375
1582297449882546,0.5625,-3.75,3.5625
1582297449905628,-3.375,-5.875,5.125
1582297449928422,-1.375,-4.625,7.1875
1582297449942585,0.1875,2.3125,9.75
1582297449965464,0.5,5.0625,12.875
1582297449988262,-13.3125,10.3125,12.8125
1582297450009405,-29.8125,16.0625,7.9375
1582297450026159,-102.125,23.25,1
1582297450048106,-134.875,23.6875,-8.125
1582297450069460,-161,-35.125,-12.0625
1582297450093261,-16.6875,-17.75,-102.313
1582297450109939,-34.6875,-0.5625,-110.25
1582297450128883,-26.0625,41.625,-130.875
1582297450145867,-8.0625,73.6875,-157.188
1582297450167983,6.5625,86.6875,-174.625
1582297450189753,6.75,98.8125,-178.688
1582297450205691,16.6875,117.813,-186.188
1582297450228616,23.3125,136.875,-186.5
1582297450249625,26.6875,148.188,-179.5
1582297450265516,15.5625,155.5,-172.125
1582297450288470,0.875,161.188,-162.25
1582297450309458,-5.3125,159.938,-146.5
1582297450325356,-4.4375,157.625,-134.938
1582297450348351,9.3125,157.875,-123.063
1582297450369631,17.4375,153.75,-115.875
1582297450385242,15.1875,149.125,-102.375
1582297450408151,13.9375,141.938,-85.25
1582297450429476,10.25,135.875,-75.125
1582297450445104,24.0625,123.063,-70.1875
1582297450468292,44.3125,107,-67.75
1582297450488982,38.25,96.9375,-56.4375
1582297450505042,22.75,91.0625,-35.875
1582297450527818,29.875,89.5625,-22.375
1582297450550810,38.375,81.75,-14.5625
1582297450564779,29.9375,68.25,-8.625
1582297450588652,26,57.9375,-9.375
1582297450610595,29.4375,48.75,-10.0625
1582297450624985,40.5,40.375,-3.1875
1582297450648492,28.4375,33.75,8.5
1582297450670746,17.8125,25.6875,9.1875
1582297450691759,10.125,19.5,9.6875
1582297450708332,4.875,19.5625,10.25
1582297450731289,9.4375,16.0625,13.1875
1582297450752261,-2.1875,9.875,11.25
1582297450768383,-11.5625,9.5625,10.5
1582297450791111,5.4375,10.125,4.1875
1582297450812053,15.75,15,2.3125
1582297450828014,15.4375,14.25,0.9375
1582297450851194,-2.4375,13.5625,0.875
1582297450856002,-2,12.6875,-0.5625
1582297450879070,15.0625,16.5,-3.25
1582297450896919,17.75,20.6875,-6.5625
1582297450915788,16.0625,20.4375,-7.4375
1582297450939022,3.125,15.4375,-7.25
1582297450954120,14.875,15.75,-9.8125
1582297450976622,18.125,12.5625,-8.6875
1582297450998757,10.1875,5.5625,-6.0625
1582297451013723,1.8125,3.8125,-0.6875
1582297451036515,-6.9375,3.5,2.9375
1582297451058610,-2.1875,3.6875,3.6875
1582297451073358,2.625,1.75,7.1875
1582297451096650,2.125,0.75,10.375
1582297451112475,4,1.5,12.6875
1582297451134200,4.375,2.625,13.75
1582297451156131,3.9375,2.25,14.8125
1582297451172090,0.375,5.5,17.875
1582297451201249,3.1875,10.8125,16.375
1582297451216308,2.4375,6.0625,10.9375
1582297451232939,-6.3125,-1.625,12.5625
1582297451254073,-11,-5.625,8.5625
1582297451276014,-5.75,-4.5,4
1582297451292771,-12.1875,-4.75,3.6875
1582297451313962,-23.0625,-5.25,3.5
1582297451336651,-24.1875,-10.625,-2.0625
1582297451353815,-19.25,-19,-9.8125
1582297451373917,-16.875,-22.6875,-14.375
1582297451396508,-12.625,-23.0625,-18.125
1582297451414443,-7.1875,-21.3125,-22
1582297451433397,-11.875,-25,-23.25
1582297451456387,-26.625,-31.5,-24.25
1582297451481886,-24.75,-37.25,-21.8125
1582297451493426,-14.75,-43.25,-14.25
1582297451516375,-12.0625,-49.9375,-6.125
1582297451541103,-14,-55.0625,4.0625
1582297451554117,-11.375,-56.0625,12.3125
1582297451576202,-24.1875,-58.0625,21.875
1582297451593964,-22.5625,-64.5,42.125
1582297451614094,-8.4375,-71.5,56
1582297451636057,3.0625,-75.125,67.25
1582297451653989,-9.1875,-73.375,69.125
1582297451674168,-14.125,-79.9375,87.6875
1582297451696060,-5.8125,-93.3125,106.875
1582297451713644,6.5625,-100.125,121.688
1582297451733819,-3.25,-99,124.75
1582297451757531,-6.5625,-109.188,127.313
1582297451774491,-2.625,-124.188,132.5
1582297451793855,0,-129.813,137.188
1582297451816516,-7.0625,-123.438,140.25
1582297451834319,-24.5,-121.375,150.125
1582297451853462,-39.8125,-123.938,153.438
1582297451876423,-41.8125,-122,147.813
1582297451894168,-44.5,-118.5,138.688
1582297451914111,-33.1875,-120.938,139.063
1582297451936208,-14.8125,-121.563,138.875
1582297451954048,-13,-109.5,134.875
1582297451974322,-31.5625,-89.125,123.063
1582297452003922,-39.6875,-64.375,111.688
1582297452013890,-35.5,-55.3125,108.188
1582297452034020,-14.9375,-52.8125,101.938
1582297452055731,0.75,-47.375,91.625
1582297452073688,-4.25,-40.625,80.375
1582297452094624,-10.875,-38.9375,70.75
1582297452116744,-27.5,-34.9375,60.4375
1582297452134526,-50.75,-31.4375,50.0625
1582297452155460,-57.25,-26.625,40.125
1582297452176551,-39.625,-19.875,30.1875
1582297452194360,-18.1875,-17.4375,24.6875
1582297452215299,-11.5625,-21.8125,22.3125
1582297452236440,-10.3125,-18.5625,22.8125
1582297452254431,-11.25,-8.375,24.75
1582297452275143,-5.0625,0.0625,24.0625
1582297452296236,11.75,-0.75,18.75
1582297452314095,-10.6875,-7.75,19.0625
1582297452334983,-25.875,-12.5625,3.25
1582297452355928,-17,2,-9.125
1582297452373876,-15.8125,8,-4.75
1582297452394827,-4.9375,6.5625,1.375
1582297452416763,22,-1.125,-1.3125
1582297452434548,34.1875,-6.25,-1.6875
1582297452456661,20.25,-7.3125,-0.8125
1582297452475830,7.3125,-4.125,-3.25
1582297452493556,9.75,-1.625,-7
1582297452515718,7.125,-5.375,-4.375
1582297452536583,10.75,-8.6875,1.875
1582297452560422,14,-10.1875,4.875
1582297452575456,10.0625,-9.75,6.8125
1582297452597347,11.3125,-6.3125,2.4375
1582297452613277,2.8125,-5.375,-1.6875
1582297452636174,-7.5,-7.625,-2.125
1582297452650138,-12.0625,-9.5,-0.75
1582297452673380,-11.0625,-6.3125,-1.6875
1582297452696014,5.4375,-3.6875,-4.25
1582297452709983,11.375,-4.375,-5.1875
1582297452732963,-0.75,-4.9375,-4.25
1582297452755857,-10,-4.5625,-4.9375
1582297452769873,-18.0625,-1.375,-6.25
1582297452792943,-12.875,1.8125,-8.1875
1582297452815866,2.8125,-1.6875,-6.6875
1582297452838634,4.25,-6.4375,-4
1582297452853606,-7.0625,-4.9375,-0.5625
1582297452875770,-15.1875,-2.0625,-0.6875
1582297452889673,-15.3125,0.3125,-2.3125
1582297452913495,-15.125,1.0625,-4.625
1582297452935432,-6.125,1.1875,-7.6875
1582297452957375,2.6875,2.875,-3.125
1582297452973524,7.9375,7.1875,-1.0625
1582297452996212,3.25,8.0625,-0.5
1582297453017435,0.125,6.4375,-1.5625
1582297453033308,5.375,7.25,-2.875
1582297453056056,6.1875,10.375,-5.4375
1582297453077218,4.0625,10.25,-7.875
1582297453092955,4.875,7.625,-11
1582297453115897,6.1875,5.9375,-13.5
1582297453143975,9.875,6.6875,-19.4375
1582297453152846,4.1875,7.3125,-22.3125
1582297453175732,3.1875,10,-23.25
1582297453197163,-0.625,7.1875,-24.3125
1582297453212631,-9.9375,4.5,-22.125
1582297453235573,-16.875,3.5625,-16.5625
1582297453256651,-4.9375,8.6875,-12.5625
1582297453272472,13.9375,10.625,-4.4375
1582297453295411,1.8125,0.4375,10.0625
1582297453317409,-3.5,-6.5,21.875
1582297453332558,1.25,-1.625,27.5625
1582297453355255,14.875,3.5625,26.6875
1582297453378522,21.9375,0.5,20.125
1582297453392156,36.25,2.8125,-5.125
1582297453422164,60.9375,18.75,-34.5
1582297453438540,16.875,10.8125,-23.0625
1582297453452990,-14.625,1.6875,-8.75
1582297453475928,-0.1875,-7.6875,-2.5625
1582297453497953,-7.875,-7.5625,-2.625
1582297453519812,-25.4375,-14,0.9375
1582297453535773,-36.375,-12.9375,4.0625
1582297453557909,-16,-13.0625,2.25
1582297453579863,4.6875,-7.4375,-0.1875
1582297453595733,19.5625,-2,-2.25
1582297453618612,17,1.875,-4.125
1582297453639549,17.3125,6.375,-5.75
1582297453655817,22.75,10.1875,-6.0625
1582297453685484,22.5625,5.0625,-5.1875
1582297453699539,11.625,-6.5625,-3.3125
1582297453717344,-4.125,-10.25,1.4375
1582297453738329,-24.5,0.5625,-0.375
1582297453759570,4,1.8125,-2.9375
1582297453776125,4.875,-0.125,-1.1875
1582297453798078,18.5,-4.875,0.25
1582297453819443,13.625,0.3125,-0.375
1582297453835969,12.5,2.4375,-2.875
1582297453858138,7.5,3.375,-3.1875
1582297453879000,7.5625,1.1875,-0.625
1582297453895805,9.625,1.9375,-0.875
1582297453917940,6.6875,1.875,-1.4375
1582297453938695,2.5625,3,-1.5
1582297453955642,3.75,0.625,0.25
1582297453978618,2.625,0.875,1
1582297453999734,2.3125,2.4375,-0.5
1582297454015485,4.4375,1.8125,-0.75
1582297454038427,2.25,2.6875,-0.1875
1582297454059533,3.8125,3.75,-1.625
1582297454075494,5.6875,4.625,-1.5
1582297454098596,2.9375,4.6875,-2.0625
1582297454119396,-3.0625,2.3125,-1.375
1582297454136162,-7.3125,-0.3125,-0.0625
1582297454158106,-5.25,-0.125,1.3125
1582297454179378,-4,1.1875,0.9375
1582297454196044,-4.125,1,-0.0625
1582297454225927,0.4375,0.5,0.625
1582297454240881,7.25,0.1875,0.625
1582297454255961,7.875,2.5625,-0.625
1582297454277966,3.0625,1.5625,0.4375
1582297454307707,2.25,1.0625,0.5625
1582297454315736,2.125,0.0625,-0.0625
1582297454345603,2,-0.75,-0.25
1582297454360567,3.0625,-1.1875,-0.6875
1582297454375857,2.25,-0.75,-0.3125
1582297454398526,3.6875,-0.875,0.4375
1582297454420402,6.0625,-0.25,1.8125
1582297454435505,5,-0.25,3.25
1582297454458305,0,-0.75,5.6875
1582297454481239,-1.875,0.3125,6.4375
1582297454495212,2,-0.5625,7.1875
1582297454518152,5.1875,-0.5,7.125
1582297454540097,2.375,-0.5625,6.75
1582297454555040,1.5625,-0.4375,5.3125
1582297454577988,2.4375,0.625,3.5
1582297454600922,1.25,1.4375,0.8125
1582297454614889,2.125,2.25,-1.875
1582297454637819,6.75,1.5625,-3
1582297454661057,9.1875,2.6875,-4.75
1582297454674736,10.9375,2.4375,-4.8125
1582297454698655,11.6875,2.6875,-4.8125
1582297454720964,7.4375,3.3125,-5.1875
1582297454734774,-1.375,2.4375,-4.5
1582297454758495,-6.75,2.4375,-4.25
1582297454788422,-2.1875,2.6875,-4.4375
1582297454809556,-0.875,1.6875,-2.75
1582297454818515,-1.5,2.3125,-1.875
1582297454840886,-2.8125,2.375,-1.5
1582297454862218,-4.0625,1.6875,-0.75
1582297454878499,-2,1.375,-0.625
1582297454901114,0.1875,1.0625,-1
1582297454922282,2,1.125,-1.5
1582297454938015,0.375,0.4375,-1.25
1582297454960963,0.75,0.625,-1.375
1582297454982108,2.25,0.375,-1.125
1582297454997959,0,0.25,-0.25
1582297455020798,-0.6875,0.4375,0.3125
1582297455041887,0,0.125,0.9375
1582297455058702,0.9375,0.25,1.375
1582297455088620,-0.6875,0.125,1.875
1582297455103586,-1.125,-0.1875,1.6875
1582297455125517,-0.5,-0.0625,1.375
1582297455146680,0.75,-0.9375,1.4375
1582297455161575,1.25,0,0.9375
1582297455178610,1.1875,-0.625,0.75
1582297455200480,0,-0.5,0.4375
1582297455221258,-1.0625,-0.6875,0.375
1582297455238298,-2.75,-0.5625,0.375
1582297455261156,-3.125,-0.375,0
1582297455283103,-3.3125,-0.625,0.4375
1582297455299049,-1.75,-0.25,0.5625
1582297455321002,-0.875,0.125,0.3125
1582297455342932,0.125,0.9375,0.1875
1582297455365933,0.375,0.875,-0.25
1582297455380873,1.5,0.8125,-0.1875
1582297455402955,4.75,1.25,-0.75
1582297455417785,3.25,1.375,-1.1875
1582297455447153,-1,1.5625,-1.375
1582297455463612,-1.0625,0.8125,-1.125
1582297455477640,-1.5625,0.375,-1.125
1582297455500951,-3.625,0.4375,-1.1875
1582297455530473,-5.625,0.375,-1.0625
1582297455537419,-6,-0.5625,-0.375
1582297455560464,-5.25,-0.5,-0.0625
1582297455583353,-4.0625,-0.375,-0.25
1582297455598316,-3.6875,-0.1875,0.4375
1582297455620500,-4.5625,-0.625,0.25
1582297455643346,-3.4375,-0.0625,0
1582297455664244,-4.375,-0.3125,-0.25
1582297455681037,-1.8125,0.125,-0.375
1582297455702978,-2.5,0.0625,-0.75
1582297455717928,-2,0.25,-0.9375
1582297455740867,-1.75,-0.1875,-0.5
1582297455762967,-0.25,-0.1875,-0.25
1582297455784829,0.5625,0.0625,-0.25
1582297455808687,-1.6875,-0.25,0
1582297455823649,-1.25,0,0.25
1582297455844776,-0.375,-0.25,0.1875
1582297455860584,-0.1875,0,0.5
1582297455891525,0.1875,-0.1875,0.625
1582297455892461,0.1875,-0.0625,0.4375
1582297455920399,0.4375,0,0.6875
1582297455926777,2.625,0.125,0.5625
1582297455949318,2.1875,-0.25,0.875
1582297455974248,1.4375,-0.0625,0.875
1582297455986398,-0.4375,-0.0625,0.5625
1582297456009188,-2.3125,-0.1875,0.4375
1582297456026888,-0.875,-0.9375,0.375
1582297456046517,-0.625,-0.6875,0.1875
1582297456069181,0.375,-0.6875,0.1875
1582297456086014,-0.3125,-1,1
1582297456105894,-1.3125,-2.375,2.4375
1582297456129019,-3.375,-2.1875,2.75
1582297456146781,0,-1.3125,2.0625
1582297456166219,0.25,-0.5625,0.9375
1582297456188709,0.5625,0.3125,-0.0625
1582297456206620,0.875,0.5625,0.375
1582297456225795,2,0.5625,0
1582297456251714,-0.875,0.625,0.5
1582297456266462,-1.375,0.6875,-0.3125
1582297456286452,-1.5,-0.125,-0.25
1582297456308791,-0.9375,-0.0625,0.5625
1582297456326827,-0.9375,-0.8125,0.75
1582297456346341,0.25,-0.1875,1.25
1582297456376359,-4.875,-1.375,0.1875
1582297456386849,2.375,0.125,-1.25
1582297456406511,-2.9375,1.6875,-1.0625
1582297456429055,2,1.3125,-0.25
1582297456446519,-0.125,-0.75,0.3125
1582297456482972,3.4375,0.125,-1.4375
1582297456488917,-6.75,-0.4375,0.3125
1582297456506818,-2.125,-0.1875,0.4375
1582297456526172,-3.1875,-1.9375,1.5
1582297456549004,0.75,0.1875,-0.3125
1582297456566669,-4.3125,-0.125,-1.125
1582297456586607,-0.4375,1.0625,-1.5
1582297456611701,-2.25,0.5625,-1
1582297456626921,-0.5,2,0.5625
1582297456646508,-6.9375,-0.875,1.375
1582297456668515,5.875,0.375,0.75
1582297456686352,-4.125,-0.5625,1
1582297456706437,0.75,0.1875,0.9375
1582297456728418,-4.1875,-0.875,1.75
1582297456754156,0.3125,-0.375,1.3125
1582297456767500,-1.5625,-0.625,0.3125
1582297456789108,1.125,-0.25,-0.75
1582297456806463,-2.8125,-0.375,-1.25
1582297456827967,-1.3125,-0.3125,-0.75
1582297456849115,-0.6875,-1.125,-0.1875
1582297456866862,2.6875,-0.5,-1
1582297456887800,-0.875,-0.5,-1.875
1582297456908983,2.5625,0.5,-2.1875
1582297456926696,0.4375,0.5,-2.0625
1582297456953832,2.75,1.125,-1.5625
1582297456968808,0.8125,0.625,-0.75
1582297456986541,2.0625,0.9375,-0.3125
1582297457009481,-1.0625,0.75,-0.75
1582297457030464,-0.125,0.4375,-0.0625
1582297457046976,-3.0625,0.25,1.25
1582297457067352,0.5,0.25,1.25
1582297457088323,0,0.75,1
1582297457106214,0,1.0625,0.3125
1582297457127288,-1.75,0.8125,0
1582297457149149,0.1875,0.75,0
1582297457166801,0.375,0.3125,0.1875
1582297457188995,0.4375,0.125,0.125
1582297457209135,-2.125,0.25,-0.1875
1582297457226890,-2.4375,-0.125,-0.25
1582297457249116,0.0625,-0.1875,-0.25
1582297457268960,1.5625,-0.25,0.3125
1582297457286734,0.3125,-0.25,0.375
1582297457308852,-1.125,-0.25,0.1875
1582297457328807,-0.3125,-0.1875,0.1875
1582297457346577,0.0625,-0.4375,0.5625
1582297457369518,-0.4375,-0.0625,0.875
1582297457396561,-1.75,-0.625,1.0625
1582297457406427,-0.5,-0.4375,1
1582297457429489,0.375,-0.5,0.625
1582297457449298,-0.8125,-0.5,0.625
1582297457466300,-0.375,-0.1875,0.6875
1582297457488196,0.375,-0.5,0.9375
1582297457509182,0.5,-0.1875,0.5625
1582297457526092,-0.8125,0.3125,-0.125
1582297457548091,-0.5625,-0.0625,-0.0625
1582297457586155,0,-0.3125,0.3125
1582297457588928,-0.375,-0.1875,0.1875
1582297457608213,-1.5,-0.0625,0.0625
1582297457629061,-1.0625,-0.125,-0.0625
1582297457645836,-0.9375,-0.5625,0.125
1582297457667911,1.125,-0.1875,-0.125
1582297457689784,0.375,-0.3125,-0.1875
1582297457705615,-2.125,-0.75,0.4375
1582297457728548,-0.1875,0.25,-0.1875
1582297457749704,1.625,0.1875,-0.375
1582297457765495,2.5,0.0625,-0.5
1582297457788391,2,0.125,-0.6875
1582297457809492,0.0625,-0.1875,-0.375
1582297457825420,-0.625,0,-0.4375
1582297457849225,0.0625,0.4375,-0.875
1582297457869386,0.8125,0.625,-1.0625
1582297457886135,2.5,-0.125,-0.3125
1582297457908362,3.4375,0.4375,0.375
1582297457929069,1.3125,-0.3125,1
1582297457945968,3.0625,0.1875,1
1582297457967953,2.875,0.4375,-0.1875
1582297457989909,3.875,-0.125,-0.5625
1582297458005953,3.125,-0.25,-1.125
1582297458028918,4.375,-0.5625,-1.6875
1582297458049856,2.8125,-0.8125,-1.8125
1582297458065883,1,-1.125,-1.5625
1582297458088586,2,-0.5625,-1.8125
1582297458110533,3.5,-0.5,-1.5625
1582297458133473,3.8125,-0.4375,-0.75
1582297458148476,3.125,-0.1875,-0.875
1582297458170368,1.875,0.125,-1.4375
1582297458185466,1.5,1,0.25
1582297458208546,2.8125,1.0625,0.9375
1582297458230399,4.25,0.375,0.9375
1582297458245417,1.5,0.3125,0.9375
1582297458268109,0.5625,-0.125,0.5625
1582297458291045,1.75,-0.0625,-0.4375
1582297458312129,1.3125,0.125,-0.6875
1582297458327994,2,0.4375,-0.6875
1582297458350945,3.4375,0.6875,-0.9375
1582297458364903,1.3125,0.375,-0.625
1582297458387785,1.375,0.25,-0.5
1582297458417040,0.875,0.375,-0.5
1582297458424687,1.375,0.1875,-0.625
1582297458448622,-0.25,0,0
1582297458470675,-0.25,-0.1875,0.125
1582297458484742,-0.0625,-0.125,0.5
1582297458508462,0.125,-0.0625,0.1875
1582297458530460,-1.3125,-0.1875,0.0625
1582297458545369,-1.25,-0.625,0.125
1582297458568302,-0.5625,-0.375,0.0625
1582297458590434,0.625,-0.125,-0.25
1582297458612288,-0.8125,0.125,-0.25
1582297458628482,-2.625,-0.1875,0.125
1582297458651080,-1.875,-0.0625,-0.0625
1582297458672437,0.4375,0.1875,-0.375
1582297458695960,1,0.4375,-0.625
1582297458710927,0,0.875,-0.375
1582297458732056,0.0625,0.875,0.125
1582297458747829,2.625,1.25,-0.0625
1582297458770769,3.625,0.75,0.375
1582297458791944,3.125,0.4375,0.9375
1582297458808660,1.0625,-0.1875,0.9375
1582297458830605,0.6875,0,0.875
1582297458851701,0.8125,0.125,0.875
1582297458868545,2.5625,0.1875,0.8125
1582297458890479,3.625,0.125,1.0625
1582297458911428,3.8125,0.625,0.9375
1582297458928339,2.6875,0.1875,0.9375
1582297458950471,1.625,0,1.1875
1582297458972266,1.3125,-0.125,1.125
1582297458988232,1.0625,-0.125,1
1582297459010311,1.4375,-0.1875,1.0625
1582297459032261,1.5,-0.3125,0.9375
1582297459048255,1.625,-0.25,0.625
1582297459070959,-0.375,-0.625,0.6875
1582297459092908,-0.875,-0.625,0.4375
1582297459108090,-0.1875,-0.8125,-0.1875
1582297459131100,-0.8125,-1,0.1875
1582297459153740,-0.8125,-0.875,0.0625
1582297459167770,-1.5625,-0.5625,0
1582297459190642,-2.5,-0.6875,0.5
1582297459220570,-1.0625,-0.6875,0.3125
1582297459227757,-0.4375,-0.625,0.375
1582297459250479,-1.375,-0.25,0.4375
1582297459273416,-2,0.0625,0.375
1582297459287383,-1.625,0.1875,0.3125
1582297459310365,-2.5,0.5,0.0625
1582297459333323,-3.5,-0.125,0.125
1582297459347264,-2.125,-0.125,-0.8125
1582297459370166,-2.9375,0.25,-1.75
1582297459393284,-4.0625,0.75,-2.5
1582297459407066,-5.5625,0.3125,-2.3125
1582297459431001,-3.5625,1.1875,-2.1875
1582297459453546,-1.8125,1.4375,-1.6875
1582297459467907,1.6875,1.8125,-1.375
1582297459497816,1.5,2.0625,-0.375
1582297459512957,3.25,1.5625,0.375
1582297459527800,5.1875,1,1.0625
1582297459550678,5.8125,0.4375,1.6875
1582297459580847,5.3125,-0.4375,1.8125
1582297459594731,1.625,-1.4375,2.3125
1582297459610521,-1.3125,-1.9375,2.1875
1582297459633518,-1.4375,-2.3125,2.1875
1582297459654448,-1.25,-2.5625,1.9375
1582297459670701,-2.0625,-2.4375,1.5625
1582297459693316,-4.8125,-2.5625,1.25
1582297459714430,-4.75,-2.5,0.75
1582297459731219,-2.4375,-1.875,0.3125
1582297459753199,-0.3125,-1.5,0.1875
1582297459774445,0.875,-0.6875,0.25
1582297459791037,1.5,0.125,-0.0625
1582297459813148,1.5,0.375,0
1582297459834314,1.9375,0.875,-0.3125
1582297459851130,2,0.375,-0.25
1582297459872926,1.1875,0.6875,-0.375
1582297459894754,0.375,0.9375,-0.625
1582297459911042,-0.25,0.75,-0.625
1582297459932847,-0.75,1.25,-1.25
1582297459954592,0.1875,1.125,-1.5625
1582297459970551,-0.5625,0.875,-1.25
1582297459993491,-0.3125,1.0625,-1.4375
1582297460015781,-0.5625,0.6875,-1.5
1582297460030396,-0.5625,0.375,-0.9375
1582297460053341,-0.25,0.25,-1
1582297460083277,-1.6875,0.0625,-0.8125
1582297460090271,-1.8125,-0.25,-0.625
1582297460113228,-1.6875,-0.25,-0.5625
1582297460136108,-1.8125,-0.25,-0.5625
1582297460150390,-1.4375,-0.125,-0.5
1582297460173013,0,-0.25,-0.1875
1582297460195998,0.5625,-0.1875,-0.5625
1582297460210084,1.8125,1.1875,-0.375
1582297460232941,-5.0625,-1.1875,0.4375
1582297460255942,4.875,-0.25,-0.4375
1582297460270073,-3.4375,-0.8125,0.6875
1582297460292739,3.9375,1.1875,0.0625
1582297460315632,-4.125,-0.625,1
1582297460330596,3.75,-0.1875,0.5
1582297460353526,0.25,-0.5625,-0.375
1582297460376466,0.0625,0,-0.75
1582297460390429,-1.625,-0.1875,-0.5
1582297460413624,1.5,0.125,-0.0625
1582297460435351,0.25,0.25,-0.75
1582297460450285,-1.75,-0.25,-1
1582297460473205,0.25,-0.5625,-2.125
1582297460496145,-1.75,-0.125,1.0625
1582297460518093,0.0625,-0.0625,-1.0625
1582297460533260,-1.1875,-0.5625,0.1875
1582297460555983,-1.6875,-0.125,-1.0625
1582297460576984,-0.6875,-0.4375,-1.0625
1582297460592886,-1.1875,0,-0.4375
1582297460615891,-1.375,-0.6875,0.625
1582297460638347,-1.5625,-0.6875,0.8125
1582297460652740,-0.0625,-0.625,0.5625
1582297460675671,0.5625,0,-0.125
1582297460696666,1.0625,0.0625,0.25
1582297460713571,1.25,-0.125,0.5
1582297460735792,2,0.0625,0.125
1582297460756823,-0.6875,0,0.0625
1582297460773403,-0.625,0.125,0.1875
1582297460795489,0.1875,-0.0625,0.4375
1582297460817292,1.6875,-0.1875,0.4375
1582297460833495,0.9375,-0.5,0.375
1582297460855662,-0.375,-0.3125,0.4375
1582297460877339,-1,-0.375,0.9375
1582297460893325,1.3125,-0.25,0.5
1582297460899066,2.3125,0.25,0.0625
1582297460921014,0.375,0.25,0.125
1582297460943999,-0.25,-0.1875,0.3125
1582297460959006,-0.125,-0.3125,0.5625
1582297460981082,-0.5,-0.5625,0.8125
1582297461003785,-1.375,-0.1875,0.625
1582297461019052,-0.3125,-0.25,0
1582297461041693,0.4375,-0.0625,0.125
1582297461063828,1.125,1.0625,-0.1875
1582297461078787,1.625,1.5625,-1
1582297461101616,-1.25,1,-0.8125
1582297461123947,-0.3125,1.0625,-0.875
1582297461138788,-0.3125,0.6875,-0.9375
1582297461161409,-0.3125,0.6875,-0.6875
1582297461192423,-0.25,1.125,-0.75
1582297461198727,1.3125,1.1875,-0.9375
1582297461221269,1.375,1,-1.1875
1582297461243290,3.5,1.25,-1.125
1582297461259171,2.4375,0.8125,-0.5
1582297461281269,1.4375,0.5,-0.3125
1582297461304043,-0.4375,0.125,-0.0625
1582297461318943,-0.8125,-0.1875,-0.0625
1582297461341414,-0.8125,-0.5625,0.125
1582297461364008,-0.1875,-0.25,-0.125
1582297461379004,-1.375,-0.25,-0.0625
1582297461401761,-0.875,-0.3125,-0.0625
1582297461423899,0,-0.3125,0
1582297461438780,1.25,-0.1875,0.25
1582297461461623,0.0625,0.0625,0.4375
1582297461483674,0.125,-0.25,0.875
1582297461498641,0.125,0.125,0.9375
1582297461521457,-1.125,0.0625,0.625
1582297461543533,0,-1.5,-0.3125
1582297461560304,3.9375,1.625,0.9375
1582297461581472,-2.375,-0.5,-0.875
1582297461599193,2.6875,-0.0625,1.0625
1582297461620143,-0.1875,0.8125,0.1875
1582297461641286,1.5,1.0625,-0.25
1582297461659453,-0.5,-0.125,-0.8125
1582297461679981,2,0.3125,1
1582297461701113,-0.875,0.125,0
1582297461718876,0.6875,-0.4375,1.4375
1582297461747796,0.375,0.1875,0.3125
1582297461761067,0.375,-0.4375,0.625
1582297461778714,0.5625,-0.4375,0.5
1582297461801985,1.25,0,0.5
1582297461820650,1.25,0.875,0.1875
1582297461838791,0.125,0.25,0.3125
1582297461860495,1.125,0.75,-0.1875
1582297461884431,0.1875,0.125,-0.0625
1582297461899388,-0.125,-0.125,-0.125
1582297461921845,-1.0625,-0.5,-0.25
1582297461941480,-0.9375,-0.625,-0.125
1582297461959418,-1.25,-0.25,-0.125
1582297461981577,0.4375,0,-0.25
1582297462009145,-0.125,0.25,-0.125
1582297462025052,0.8125,0.3125,-0.1875
1582297462041480,0.6875,0.1875,-0.25
1582297462061211,-0.0625,0.0625,-0.0625
1582297462078911,-0.3125,-0.0625,-0.0625
1582297462101847,-0.625,-0.0625,0.0625
1582297462120859,-1.375,-0.125,-0.125
1582297462139422,-1,-0.125,-0.125
1582297462161693,-0.625,-0.25,0
1582297462181634,-0.5625,-0.1875,0
1582297462199024,-2.0625,-0.4375,0.25
1582297462221532,-1.3125,-0.4375,0.25
1582297462241591,-1.125,-0.1875,0.25
1582297462259513,-1.625,-0.1875,0.375
1582297462281411,-0.8125,-0.0625,0.1875
1582297462301491,-0.25,0.4375,0
1582297462319274,0.8125,0.1875,0
1582297462341945,0.625,0.625,0
1582297462362541,-0.4375,0.4375,0.125
1582297462379108,-1.6875,0.375,0
1582297462401453,-1.9375,0.375,-0.1875
1582297462421002,-0.4375,-0.375,-0.0625
1582297462438945,0.1875,-0.25,-0.25
1582297462461884,-1.875,-0.125,-0.3125
1582297462482875,-3.125,-0.125,-0.5
1582297462498788,-2.0625,-0.125,-0.6875
1582297462521723,0.5,0.0625,-0.5
1582297462542735,1.9375,0.375,-0.5
1582297462558625,0.5625,-0.125,-0.0625
1582297462580741,-1.75,-0.625,0.9375
1582297462601752,-3.4375,-0.4375,0.8125
1582297462618485,-2.4375,-0.75,0.5625
1582297462640466,-0.9375,-0.6875,0.625
1582297462662412,0.5625,-0.1875,0.0625
1582297462678535,-1.8125,0.0625,-0.4375
1582297462700435,-2.3125,0.3125,-0.5625
1582297462722507,0.1875,0.5,-0.875
1582297462738436,0.875,0.1875,-0.6875
1582297462761085,0.6875,-0.0625,-0.4375
1582297462782221,-0.625,-0.0625,-0.1875
1582297462797993,-0.8125,-0.0625,0.125
1582297462820929,-2.125,0,0.0625
1582297462842866,-1.4375,-0.25,0.1875
1582297462858829,-1.6875,-0.4375,-0.0625
1582297462881077,-0.25,-0.5,-0.3125
1582297462902715,-0.75,0.0625,-0.5
1582297462918134,-0.625,0.25,-0.3125
1582297462940916,-0.375,0.125,-0.3125
1582297462963547,1.8125,-0.0625,0
1582297462977546,1.25,0.125,-0.1875
1582297463000444,0.375,0.3125,-0.25
1582297463023389,-0.9375,-0.3125,0.375
1582297463037349,0.625,0,0.1875
1582297463060649,0.5,-0.1875,0.25
1582297463083282,-1.125,0.0625,0
1582297463097258,-1.25,-0.125,-0.0625
1582297463121121,0.375,0.3125,-0.1875
1582297463143065,1.1875,0.375,-0.25
1582297463157606,0.8125,0.3125,-0.375
1582297463181029,1.0625,0.1875,-0.375
1582297463203042,0.75,-0.0625,-0.0625
1582297463225896,0.8125,-0.1875,-0.0625
1582297463247964,0.3125,-0.4375,0.0625
1582297463262806,-0.75,-0.25,0.1875
1582297463277758,-1.6875,-0.4375,0.3125
1582297463300905,-1,-0.375,0.1875
1582297463323580,-0.8125,-0.25,0.1875
1582297463344737,0.1875,-0.1875,0.0625
1582297463360655,1.3125,-0.125,0.375
1582297463383483,1.4375,0.25,-0.0625
1582297463411545,0.625,-0.1875,0.3125
1582297463420327,-0.625,-0.1875,0.3125
1582297463443265,-0.5,0.0625,0.25
1582297463464407,0.5625,0.125,0.1875
1582297463480357,1.625,0.1875,0
1582297463503190,0.3125,0.125,0.0625
1582297463524185,-1,0.125,0
1582297463540997,-0.5,0.1875,-0.375
1582297463563065,0.3125,-0.1875,-0.3125
1582297463585886,0.375,-0.0625,-0.375
1582297463600902,-0.25,0,-0.375
1582297463622835,-1.1875,0,-0.25
1582297463644787,0.4375,0.1875,-0.1875
1582297463660965,0.4375,0.0625,-0.125
1582297463683615,1.375,0.375,-0.125
1582297463704668,-0.375,-0.1875,0.125
1582297463720577,0.125,-0.0625,0.125
1582297463743455,-1.5,-0.0625,0.1875
1582297463765458,-1.0625,0,-0.3125
1582297463780416,-0.9375,-0.1875,0.3125
1582297463803296,0.9375,0.25,-0.1875
1582297463825735,-0.25,0.125,0
1582297463840253,-0.75,0.3125,0.3125
1582297463863202,-0.875,0.125,0
1582297463886075,0.8125,0.4375,0.125
1582297463907174,-0.875,-0.0625,0
1582297463922987,-0.375,0.1875,0.375
1582297463945915,-1.875,0.0625,-0.0625
1582297463967863,0.1875,-0.1875,0.375
1582297463982904,0.125,-0.1875,0.5
1582297464005760,0.625,0.125,0.4375
1582297464019722,-0.625,0.0625,0.5
1582297464043674,-0.9375,0,0.375
1582297464065596,-0.5625,-0.1875,0.25
1582297464079727,0.1875,-0.1875,0.3125
1582297464103495,0.3125,-0.125,0.125
1582297464125437,-0.25,0,0.0625
1582297464140395,-0.5,0.125,0.0625
1582297464163591,0.8125,-0.1875,-0.125
1582297464185284,1.0625,-0.0625,0.0625
1582297464200288,0.75,-0.375,-0.1875
1582297464223237,1.3125,-0.3125,-0.1875
1582297464246168,-1.0625,-0.4375,0.0625
1582297464267251,-0.625,-0.1875,-0.0625
1582297464283149,0.625,0,-0.1875
1582297464305951,1.1875,0.1875,-0.3125
1582297464327101,-0.375,-0.3125,-0.125
1582297464342859,-1.1875,-0.0625,-0.3125
1582297464365795,-1.25,0,-0.25
1582297464386736,-1,-0.0625,-0.25
1582297464402695,0.1875,-0.4375,0
1582297464425647,0.0625,-0.125,-0.125
1582297464446630,-0.75,0.125,-0.1875
1582297464463575,-0.5625,0.125,-0.0625
1582297464485646,-0.4375,0,0.0625
1582297464506556,0.9375,-0.125,0.0625
1582297464523369,-0.0625,-0.125,-0.0625
1582297464545427,-0.4375,0,0.1875
1582297464567304,0.375,0.1875,0.0625
1582297464583467,0.1875,0,-0.125
1582297464606148,-0.1875,-0.125,0
1582297464634651,0.4375,0.25,-0.4375
1582297464643053,-1.1875,-0.25,-0.25
1582297464665990,-0.625,-0.4375,-0.125
1582297464686988,-0.625,-0.125,0.0625
1582297464702888,-0.375,0,0.125
1582297464725828,-0.1875,0.1875,0.25
1582297464747926,0.1875,0.25,0.0625
1582297464763726,0,0,0.1875
1582297464785887,-0.0625,-0.1875,0.25
1582297464808608,0.375,0.125,-0.1875
1582297464823571,-0.1875,0,-0.0625
1582297464845744,-0.5625,0.125,-0.3125
1582297464868507,0.4375,-0.1875,-0.4375
1582297464882546,0,-0.1875,-0.25
1582297464905405,-0.3125,0,-0.3125
1582297464928346,-0.3125,-0.1875,0.0625
1582297464942261,0.3125,0,0.125
1582297464965404,-0.625,0,0.25
1582297464988132,-1.6875,0,0.25
1582297465002845,-1.375,-0.25,0.25
1582297465026026,-0.25,-0.1875,0.3125
1582297465047980,0.375,-0.25,0.0625
1582297465062926,0.6875,0.125,0
1582297465085864,-0.625,0.375,0.0625
1582297465107994,0.125,0.375,0.1875
1582297465122773,2.5,0.4375,-0.25
1582297465145706,1.5625,0.5,-0.375
1582297465167844,-0.0625,0,-0.1875
1582297465182669,-2.0625,-0.125,-0.125
1582297465205545,-2.1875,-0.3125,-0.25
1582297465228542,-0.9375,-0.4375,-0.1875
1582297465249681,0.75,-0.25,-0.25
1582297465265770,-0.1875,-0.0625,-0.375
1582297465288371,-1.375,0,-0.3125
1582297465309648,-1.0625,-0.0625,-0.3125
1582297465325420,0.625,-0.125,-0.3125
1582297465356143,0.8125,-0.125,-0.1875
1582297465369329,-0.9375,-0.25,-0.125
1582297465386061,-0.625,-0.25,0.125
1582297465409201,-0.375,0,0.125
1582297465429002,-0.3125,-0.125,0.125
1582297465445964,-0.1875,-0.0625,0
1582297465468839,0.4375,-0.125,-0.125
1582297465489783,0.875,0,-0.125
1582297465505740,0.8125,0,0
1582297465528026,0.25,0.3125,-0.0625
1582297465549679,0.1875,0.125,-0.125
1582297465565583,0.3125,0.0625,0
1582297465588527,0.6875,-0.125,-0.125
1582297465609720,0.4375,0,-0.25
1582297465633454,0,0.25,-0.25
1582297465648404,0.75,0,-0.1875
1582297465670340,1.4375,-0.125,-0.125
1582297465685466,1.1875,0,-0.125
1582297465708264,-0.0625,0.125,-0.5625
1582297465731137,-0.5,-0.125,-0.375
1582297465746097,0.875,-0.1875,-0.375
1582297465768050,1.375,0.0625,-0.4375
1582297465791034,1.125,0,-0.1875
1582297465805985,0.4375,0.0625,-0.125
1582297465827929,-0.125,0.0625,0.0625
1582297465850817,0.375,-0.0625,-0.0625
1582297465864794,0.5625,-0.0625,0.1875
1582297465887886,0.9375,-0.0625,0.125
1582297465911009,2.25,0.25,0.0625
1582297465924675,-0.3125,0,0.1875
1582297465932603,0.125,0.1875,0.25
1582297465954745,2.5625,0.3125,0.0625
1582297465976488,2.4375,0.3125,0.1875
1582297465992441,0.9375,0.25,0.25
1582297466013610,-0.875,0.0625,0.125
1582297466036441,-0.5,-0.1875,0.1875
1582297466052444,0.25,-0.1875,0.125
1582297466073731,0.5,-0.125,-0.125
1582297466096297,-0.125,0,-0.3125
1582297466112448,-0.1875,0.1875,-0.25
1582297466134061,0.5,0.25,-0.1875
1582297466156149,1.1875,0.25,-0.125
1582297466172138,0.75,-0.0625,0
1582297466194097,0.5,-0.375,0.3125
1582297466216301,0.3125,0.0625,0.25
1582297466232834,-0.6875,0.25,0.0625
1582297466253799,-0.375,0.3125,0
1582297466275684,0.9375,0.125,-0.0625
1582297466292635,1.6875,0.3125,-0.25
1582297466313833,0.9375,0.1875,-0.25
1582297466335889,-0.5625,0.125,0.125
1582297466352582,0.1875,-0.0625,0.1875
1582297466373610,0.4375,-0.125,0.0625
1582297466396553,-0.3125,0,0.125
1582297466412683,0.5,-0.1875,0.125
1582297466433704,0.5625,-0.125,0.0625
1582297466456385,1.125,0.0625,-0.125
1582297466472157,0.125,0.1875,0.1875
1582297466494158,0.875,0.0625,0.0625
1582297466516240,0.125,-0.0625,0.1875
1582297466532417,0.125,-0.0625,0.125
1582297466553935,0.8125,-0.0625,0
1582297466577872,-0.0625,-0.0625,0.3125
1582297466592838,0.125,-0.0625,0.125
1582297466613978,0.8125,-0.0625,0.0625
1582297466638974,0.75,0.25,0
1582297466654090,1.3125,0.1875,0.0625
1582297466674020,1,-0.1875,0.25
1582297466696554,0.375,-0.25,0.1875
1582297466714062,-0.0625,0,0.125
1582297466733659,-0.1875,-0.125,0.1875
1582297466756578,0.4375,-0.0625,0.3125
1582297466774349,0.4375,0,0.25
1582297466793597,1.1875,0.125,0.0625
1582297466816576,0.0625,0.0625,-0.0625
1582297466834194,-0.75,-0.4375,-0.0625
1582297466853139,-1,-0.5625,-0.125
1582297466876240,-0.8125,-0.5625,-0.4375
1582297466894042,-0.5625,-0.5,-0.25
1582297466914040,-0.4375,0,-0.5
1582297466935917,-0.0625,0.125,-0.4375
1582297466954053,-0.0625,-0.0625,-0.0625
1582297466973994,0.75,0.0625,-0.1875
1582297466995797,0.6875,0.0625,-0.25
1582297467021692,-0.375,0.0625,-0.125
1582297467033828,-0.3125,-0.1875,0.125
1582297467055809,-0.6875,0,-0.1875
1582297467074233,-0.75,0.125,-0.25
1582297467093644,0.9375,0.3125,-0.5625
1582297467116621,0.375,-0.0625,-0.3125
1582297467133451,-0.3125,-0.0625,-0.4375
1582297467153391,-0.5,-0.125,-0.25
1582297467176421,-0.125,-0.1875,-0.125
1582297467194319,-0.0625,-0.125,-0.3125
1582297467213394,-0.1875,0.1875,-0.3125
1582297467236110,-0.25,-0.125,-0.125
1582297467254312,0,0.0625,-0.1875
1582297467275010,-0.5,0.1875,-0.375
1582297467299012,-0.75,0.0625,-0.25
1582297467313911,-0.3125,-0.375,0.0625
1582297467335057,0.25,-0.1875,0
1582297467351801,-0.6875,-0.25,0.125
1582297467373750,-0.3125,-0.25,0.1875
1582297467394693,0,-0.0625,0.0625
1582297467411817,0.4375,0.1875,0.0625
1582297467433992,0.0625,-0.125,0.125
1582297467454969,0.0625,0.125,-0.0625
1582297467471487,1.1875,0.4375,-0.3125
1582297467494423,0.625,-0.125,0.3125
1582297467515419,1.4375,-0.0625,0.1875
1582297467531320,-0.25,-0.9375,1
1582297467553311,-1.8125,-0.875,1.3125
1582297467575707,3.5,0.625,-0.6875
1582297467590187,-1.6875,0.9375,-0.3125
1582297467613289,2.6875,0.3125,-1.125
1582297467636041,2.625,1.25,-1.25
1582297467650319,-2,0.4375,-0.3125
1582297467673054,-3.75,-0.75,0.5625
1582297467695955,-1.625,-1.3125,1
1582297467710842,-1.3125,-1.5,0.3125
1582297467732879,-1.4375,-0.625,0.1875
1582297467755781,0.8125,-0.4375,0
1582297467769683,2,0.5,-0.5
1582297467792888,0.9375,1,-0.875
1582297467815729,1.25,0.875,-1
1582297467830018,0.75,0.0625,-0.375
1582297467853459,1,0.4375,-0.0625
1582297467875407,-5.25,-1.1875,0.125
1582297467890363,0.0625,0.25,1
1582297467913300,-2.5625,-0.25,-0.125
1582297467935505,1.4375,-0.5625,-0.0625
1582297467950402,1.6875,0.75,-0.0625
1582297467973426,0.3125,0.25,-0.625
1582297467996078,1.375,0.5625,-0.5
1582297468017215,0,0.25,-0.25
1582297468032985,0.4375,-0.1875,-0.0625
1582297468055916,-0.375,-0.25,-0.25
1582297468077373,-0.875,-0.4375,0.125
1582297468092876,-1.4375,-0.3125,0.1875
1582297468115806,-0.25,-0.3125,0.125
1582297468136786,1.1875,0.0625,0
1582297468152659,1.0625,0.25,0.125
1582297468175600,0.125,0.375,-0.0625
1582297468196708,-0.25,0,0.0625
1582297468213495,-0.4375,0.0625,0
1582297468235437,0.0625,-0.375,0.125
1582297468256531,-0.875,-0.3125,0.1875
1582297468273344,-0.6875,-0.125,0.125
1582297468295324,-0.75,-0.0625,0.1875
1582297468317281,2,0.125,-0.0625
1582297468333238,2,0.125,0.1875
1582297468356116,0.1875,0,0.125
1582297468377323,-0.25,-0.0625,0.125
1582297468393027,-0.9375,-0.1875,0.1875
1582297468416000,-0.0625,0.0625,0.1875
1582297468436902,1.4375,-0.0625,0.125
1582297468452859,0.5625,-0.0625,0.125
1582297468475802,-0.5625,0.125,-0.0625
1582297468496953,-1.25,0,-0.0625
1582297468512764,0.25,-0.25,-0.25
1582297468535946,0.125,-0.25,-0.375
1582297468558575,0.0625,-0.1875,-0.25
1582297468573532,0.25,-0.1875,-0.375
1582297468595755,0.125,0.0625,-0.0625
1582297468618413,1.25,0.25,-0.0625
1582297468633422,0.5,0.375,-0.1875
1582297468655373,1.4375,0.125,-0.25
1582297468685646,0.125,-0.0625,0.0625
1582297468692225,0.9375,0.375,-0.125
1582297468715375,-1.1875,0.1875,0
1582297468738105,-0.125,0,0.25
1582297468752062,0,-0.0625,0.1875
1582297468775991,2,0.0625,-0.125
1582297468798961,0.0625,0.3125,-0.3125
1582297468812891,-0.0625,0.125,0
1582297468835837,0.75,0.0625,-0.1875
1582297468858178,1,0.25,0
1582297468872731,-0.5625,-0.1875,0.25
1582297468895731,0.6875,0.125,0.1875
1582297468917673,1.5,0,0.1875
1582297468932572,1.4375,0.375,0.1875
1582297468955577,1.5625,0.25,0.125
1582297468978508,1.25,0.375,0
1582297468992454,1.3125,0.125,0
1582297469015399,0.75,0.1875,0.0625
1582297469038296,0.5625,0.125,0.0625
1582297469059289,0.4375,0,0.4375
1582297469075239,1.25,0.4375,-0.0625
1582297469098131,1.125,0.0625,0.1875
1582297469119072,-0.3125,0.0625,0.5
1582297469136026,0.75,-0.3125,0.375
1582297469157980,1.4375,-0.0625,0.5625
1582297469179258,0.25,-0.125,0.1875
1582297469195912,1.4375,0.1875,0.1875
1582297469217817,-0.3125,-0.1875,0.25
1582297469239300,1.0625,0.5625,0.375
1582297469255713,-0.3125,0.25,0.125
1582297469277863,1.25,0.3125,0.375
1582297469299752,0.375,-0.0625,0.25
1582297469315549,-0.0625,-0.125,0.0625
1582297469338487,-0.6875,-0.25,0.0625
1582297469359489,0.125,-0.1875,-0.0625
1582297469375436,0.8125,-0.1875,-0.25
1582297469398395,-0.125,0,-0.3125
1582297469419291,0.5,0.5,-0.375
1582297469435411,0.25,-0.0625,-0.1875
1582297469458173,0.375,0,0
1582297469480309,-0.125,-0.5625,0.0625
1582297469496064,0.3125,-0.0625,0.0625
1582297469525996,-0.75,-0.25,0.0625
1582297469540943,-1.1875,-0.1875,-0.125
1582297469555911,0.5,0,-0.3125
1582297469577847,0.9375,-0.25,0
1582297469600835,0.75,-0.25,-0.3125
1582297469614754,-0.375,-0.0625,-0.25
1582297469637756,-0.5,-0.1875,-0.1875
1582297469660628,-0.25,-0.0625,0.125
1582297469674634,0.0625,0,-0.0625
1582297469698523,-0.1875,0.0625,0.125
1582297469720523,-0.1875,0,-0.1875
1582297469735423,0,-0.3125,0.1875
1582297469758365,1,0.1875,-0.1875
1582297469795700,-0.5625,-0.1875,-0.125
1582297469798262,0.6875,0.1875,-0.375
1582297469818293,-0.5,-0.1875,-0.125
1582297469840334,0.5,-0.0625,-0.125
1582297469855102,0.375,-0.1875,-0.375
1582297469878041,-0.75,0,-0.1875
1582297469900985,-1.1875,-0.375,0
1582297469915029,0.0625,0,-0.125
1582297469937883,0.5,-0.125,-0.125
1582297469960826,0.1875,-0.0625,0.1875
1582297469981929,0.1875,0,-0.125
1582297469997782,0.1875,-0.3125,0
1582297470020668,-0.5,0.0625,0
1582297470042003,0.375,0.125,0
1582297470058559,1.0625,0.125,-0.125
1582297470080757,0.3125,0,0.0625
1582297470102267,-0.25,-0.1875,0
1582297470118545,-0.625,-0.375,0
1582297470140350,-1.25,-0.3125,-0.375
1582297470162283,-1.6875,-0.4375,-0.3125
1582297470178306,-0.1875,-0.25,-0.5625
1582297470200225,0.375,-0.0625,-0.5
1582297470222132,0.1875,0.25,-0.3125
1582297470246059,-0.4375,0,-0.1875
1582297470261018,-0.0625,0.125,-0.3125
1582297470282154,0.9375,-0.25,-0.0625
1582297470297933,0.1875,-0.25,0.0625
1582297470320858,-0.4375,-0.3125,0.125
1582297470349267,-1.1875,0.125,-0.0625
1582297470357907,-0.4375,0.125,-0.25
1582297470380747,0.75,0.25,-0.125
1582297470401783,1,-0.125,-0.125
1582297470417608,0.3125,0.1875,0
1582297470440544,-1.125,0,-0.1875
1582297470463476,-0.6875,-0.125,-0.0625
1582297470478435,0.9375,-0.0625,-0.125
1582297470500669,1.25,-0.0625,0.125
1582297470523376,0.1875,0.0625,-0.0625
1582297470538276,-0.75,0.0625,0.125
1582297470560362,0.125,0,-0.0625
1582297470583218,0.625,-0.1875,0
1582297470597438,0.4375,-0.0625,0.0625
1582297470620058,-0.8125,-0.375,0.1875
1582297470643001,-0.4375,-0.125,-0.125
1582297470656962,-0.1875,0,-0.125
1582297470687920,1.5625,0.0625,0
1582297470703021,0.125,0.0625,0.0625
1582297470717807,-0.3125,0.25,-0.125
1582297470740773,-0.3125,0.0625,-0.0625
1582297470762896,0.875,-0.0625,0.125
1582297470777641,0.5625,0,0.125
1582297470800575,-0.75,0.0625,0.0625
1582297470823515,0.1875,-0.0625,0.125
1582297470837540,-0.0625,-0.125,0.0625
1582297470860421,0.375,0.0625,0.1875
1582297470883418,1.4375,0.375,-0.1875
1582297470905299,1.4375,0.3125,-0.1875
1582297470920496,-0.5,0,0.1875
1582297470943507,-1.625,0.0625,-0.1875
1582297470948385,-1.125,-0.3125,-0.3125
1582297470966859,0.3125,-0.25,-0.125
1582297470986349,1.3125,-0.25,-0.0625
1582297471009021,-0.25,0.3125,-0.125
1582297471026370,-0.1875,0.4375,-0.1875
1582297471046120,0.5625,0.375,-0.1875
1582297471068854,1.125,0.125,0.125
1582297471085023,2,0.1875,-0.125
1582297471106182,0.75,0.125,0
1582297471128750,-1.3125,0.0625,0.3125
1582297471160153,-0.1875,0.125,0.125
1582297471166604,0.5,0.0625,0.25
1582297471188775,1.6875,0.3125,-0.1875
1582297471204630,0.4375,0.125,0.0625
1582297471226443,0.0625,0,0.125
1582297471248581,-0.5625,-0.25,0.1875
1582297471265338,1,0.1875,0.0625
1582297471286549,0.4375,-0.25,0.125
1582297471308263,0.5,0,0.0625
1582297471325169,0.75,-0.125,-0.0625
1582297471346314,-0.125,-0.25,0
1582297471368709,0.75,-0.125,-0.1875
1582297471386703,0.8125,0,0
1582297471406143,0.25,0,0
1582297471431895,-0.6875,-0.0625,0.125
1582297471446872,-1.0625,0,0.1875
1582297471465996,0.1875,-0.125,0
1582297471489122,-0.1875,0,0.125
1582297471506687,-1.0625,-0.25,0.125
1582297471525841,-1.5625,-0.0625,0.125
1582297471548782,-1.5,-0.125,0.1875
1582297471566524,-1.5625,-0.25,0.1875
1582297471586542,-1.25,0,0.25
1582297471609469,-1.25,0.375,0.375
1582297471626421,-1.125,0.0625,-0.0625
1582297471646509,0.125,0,0.1875
1582297471668319,0.25,0.125,0.0625
1582297471686538,0.625,0.5,-0.375
1582297471706293,0.9375,0.625,-0.4375
1582297471736073,1,-0.0625,-0.1875
1582297471746051,-0.6875,0,-0.3125
1582297471766430,-1.8125,-0.125,-0.4375
1582297471790928,-2,-0.4375,-0.375
1582297471806421,-1.125,-0.625,-0.1875
1582297471826062,-1.3125,-0.375,-0.5
1582297471848966,-1.6875,-0.3125,-0.3125
1582297471866726,0.3125,0.0625,-0.375
1582297471885729,1.125,0.1875,-0.3125
1582297471908999,0.0625,0.0625,0
1582297471926562,1.125,-0.0625,-0.1875
1582297471946520,0.8125,0.1875,-0.0625
1582297471968447,-0.6875,-0.1875,0.1875
1582297471986401,-0.6875,-0.0625,0
1582297472009396,-0.375,0,-0.125
1582297472028494,0.625,-0.1875,-0.0625
1582297472046240,0.6875,-0.0625,0.0625
1582297472067185,0.25,0.125,-0.0625
1582297472088316,-0.6875,-0.125,0.125
1582297472106087,0.25,0,0
1582297472127233,1,-0.4375,0.3125
1582297472149087,0.1875,-0.125,0.1875
1582297472165988,-0.625,-0.125,0.0625
1582297472187861,-0.25,-0.1875,0.1875
1582297472208983,0.875,-0.125,0.125
1582297472226770,-0.625,-0.0625,-0.125
1582297472247752,-0.6875,-0.3125,0.25
1582297472268753,0.9375,0,0
1582297472292613,0.5625,-0.4375,0.125
1582297472307750,-1.125,-0.25,0.125
1582297472328484,-1.1875,-0.25,0.125
1582297472346693,-0.8125,-0.3125,0.25
1582297472368377,0.125,-0.125,0
1582297472388736,-0.375,-0.0625,0.0625
1582297472406287,-0.25,-0.0625,0.125
1582297472429223,-0.1875,-0.0625,0.0625
1582297472448581,0.125,0.0625,-0.0625
1582297472466277,0.8125,-0.1875,0
1582297472489061,1.25,-0.0625,-0.125
1582297472509007,0.3125,0.3125,-0.0625
1582297472526878,0.8125,0.375,-0.3125
1582297472549338,1,0.3125,-0.1875
1582297472569842,1.5,-0.125,-0.3125
1582297472585813,0.875,0,-0.5625
1582297472607888,-1,-0.5,-0.3125
1582297472629738,-1.1875,-0.6875,-0.375
1582297472645708,-0.875,-0.6875,-0.1875
1582297472667641,-0.9375,-0.625,-0.25
1582297472689743,0.125,-0.4375,-0.375
1582297472705745,0.625,0,-0.1875
1582297472728464,-0.375,-0.0625,0.1875
1582297472749571,-0.25,0.0625,-0.0625
1582297472765377,0.5625,-0.1875,-0.0625
1582297472788536,-0.625,-0.5,0.125
1582297472802221,-1.125,-0.25,0.125
1582297472825205,-0.5625,-0.125,0
1582297472849110,0,-0.0625,-0.1875
1582297472869061,0.6875,-0.1875,0.0625
1582297472886013,0.0625,0,-0.1875
1582297472907989,-0.5,-0.1875,-0.125
1582297472929878,-0.8125,-0.1875,0.125
1582297472945840,0,-0.1875,0.125
1582297472967905,0.25,0.125,-0.0625
1582297472989719,0.1875,0.0625,0
1582297473005737,0.25,0.0625,0.125
1582297473028613,-0.125,0.0625,0
1582297473049727,-0.625,0,-0.0625
1582297473065516,-0.1875,-0.0625,-0.0625
1582297473088751,-0.125,-0.25,0.0625
1582297473109829,-0.25,-0.3125,0.0625
1582297473125356,0.375,-0.0625,-0.0625
1582297473148355,-0.0625,0.0625,0
1582297473169596,-0.75,-0.125,0.125
1582297473185342,0.0625,0,-0.0625
1582297473208194,1,0.125,0
1582297473229576,0.4375,0.0625,0.1875
1582297473246036,-1,0,0.125
1582297473268172,0.25,-0.0625,0
1582297473290110,0.5,-0.375,0.125
1582297473305879,0.125,0,0.1875
1582297473328125,0.625,0.5625,-0.3125
1582297473350763,0.5625,0.25,-0.25
1582297473366115,0.5625,0.1875,-0.6875
1582297473388100,1.25,0.25,-1.375
1582297473410596,0.625,-0.5,-1.25
1582297473424590,-0.9375,-0.875,-1.3125
1582297473448510,-1.1875,-0.5625,-1.375
1582297473470440,-1.625,-0.6875,-0.75
1582297473484397,-0.75,-0.3125,0.0625
1582297473508337,-0.0625,0.0625,0.0625
1582297473530275,-2,-0.125,0.1875
1582297473545233,-1.75,-0.625,-0.125
1582297473568168,-1.25,-0.875,-0.25
1582297473590260,-0.625,-0.875,-0.625
1582297473605127,-0.6875,-0.1875,-0.5625
1582297473628050,-1.5,0.0625,-0.4375
1582297473650954,-1.4375,0.0625,-0.5625
1582297473664913,-0.4375,-0.4375,-0.3125
1582297473687896,1.5,0.625,-0.4375
1582297473710787,-1.75,0.0625,0.125
1582297473724751,-2.0625,0.75,0.3125
1582297473747778,-0.5625,1,0.8125
1582297473770691,1.125,1.1875,1
1582297473791903,1.75,0.8125,0.875
1582297473808525,-0.1875,0.5,0.6875
1582297473830467,-2.1875,0.0625,0.4375
1582297473851415,-0.375,-0.375,0.375
1582297473868557,-0.5625,-0.875,0.5
1582297473890316,-1.5,-0.5625,0.25
1582297473912305,-4,-0.5,0.4375
1582297473928211,-4.5625,-0.25,0.6875
1582297473957265,-3.375,0.1875,0.3125
1582297473972088,-0.25,0.4375,0.25
1582297473988450,2.25,0.625,0.4375
1582297474010995,3.125,1,0.4375
1582297474032136,-0.0625,0.875,0.6875
1582297474047886,1.5,0.5,0.75
1582297474070883,3,0.125,0.625
1582297474091823,2.625,-0.1875,0.1875
1582297474108340,0.4375,-0.4375,-0.375
1582297474130922,-1.125,-0.875,-0.3125
1582297474151771,-1.1875,-0.9375,-0.4375
1582297474167571,-2.1875,-0.5625,-0.625
1582297474190513,-1.5,-0.4375,-0.1875
1582297474213506,-0.1875,-0.5625,0.75
1582297474234386,1.5,0.625,0.6875
1582297474250345,0.6875,0.75,0.9375
1582297474273341,0.1875,0.375,1.125
1582297474288485,-0.1875,-0.1875,1.1875
1582297474310356,-0.4375,-0.1875,1.1875
1582297474333124,-1.8125,-0.4375,0.9375
1582297474348081,-2.4375,-0.25,0.875
1582297474371021,-1.0625,-0.6875,1.25
1582297474392968,0.0625,-0.5625,1
1582297474407104,0.625,-0.5,0.0625
1582297474430916,-1.0625,-0.6875,0.3125
1582297474453031,0.9375,-0.875,-0.125
1582297474467764,1.1875,-0.8125,0.125
1582297474490708,0.1875,-0.125,0.5
1582297474512836,0.0625,-0.3125,0.8125
1582297474527656,0.0625,-0.625,0.875
1582297474550541,0,-0.5625,0.375
1582297474573490,1.5,-0.9375,0.375
1582297474587499,2,-0.5,-0.375
1582297474610382,0.9375,-0.375,-0.375
1582297474633319,2.3125,-0.5625,-0.4375
1582297474647286,2.625,-0.25,-0.6875
1582297474670346,2.0625,-0.0625,-1.0625
1582297474693202,-0.125,0.0625,-0.625
1582297474714307,1.125,0.125,0.125
1582297474731058,0.5,0.0625,0.875
1582297474753003,-1.125,0.125,1.25
1582297474774084,-1.5625,-0.1875,1.4375
1582297474791216,-1.1875,-0.5,1.5625
1582297474812837,-1.375,-0.4375,1.3125
1582297474833976,0.5625,-0.0625,0.875
1582297474850744,1,0.375,0.4375
1582297474872743,0.6875,0.375,0.3125
1582297474894620,-0.8125,0.0625,0.875
1582297474910576,0.8125,0.0625,0.875
1582297474933526,0.375,0.375,0.9375
1582297474954647,-0.625,-0.0625,1.3125
1582297474970420,-0.9375,-0.4375,1.1875
1582297474993425,0.6875,0.4375,0.5625
1582297475014527,2.8125,0.375,-0.1875
1582297475030562,5.4375,0.1875,-0.5
1582297475053203,5,-0.1875,-0.875
1582297475074139,3.25,0,-1.4375
1582297475091107,2.125,0.25,-1.625
1582297475113159,1.375,-0.125,-1
1582297475133979,1.125,-0.0625,-0.5625
1582297475150935,1.125,-0.0625,-0.0625
1582297475172880,0.375,-0.25,-0.0625
1582297475195983,0.125,0.125,0
1582297475210999,0.1875,0.0625,0
1582297475232781,1.4375,0.5625,0.0625
1582297475255792,1.5,0.5625,0.25
1582297475270613,1.125,0.75,0.0625
1582297475293561,0.9375,0.625,0.5
1582297475315757,1.6875,0.6875,0.625
1582297475330455,0.75,0.6875,0.875
1582297475353392,-0.75,0.5625,0.9375
1582297475383361,-0.6875,0.8125,0.8125
1582297475390294,0.875,0.375,0.875
1582297475413520,2.5625,0.5625,0.8125
1582297475435358,1.5,0.5625,0.625
1582297475450144,2.5625,0.8125,0.0625
1582297475473133,2.125,0.5,0
1582297475496018,1.875,0.625,0.1875
1582297475510047,3.375,0.75,-0.1875
1582297475532926,2.5,0.4375,-0.125
1582297475555850,0.25,0.0625,0.25
1582297475569816,-0.3125,-0.25,0.25
1582297475593047,0.3125,-0.375,0.1875
1582297475622732,-0.1875,-0.6875,0.1875
1582297475629654,0,-0.25,0.0625
1582297475653589,0.3125,-0.5625,0.125
1582297475675862,0.4375,-0.0625,-0.0625
1582297475696948,1.125,0,-0.3125
1582297475713500,1.125,0,-0.25
1582297475735372,1.25,-0.25,-0.0625
1582297475756364,-0.125,-0.25,0.125
1582297475773274,-0.8125,0,0.1875
1582297475796366,-1.3125,0.125,0.1875
1582297475817155,-0.25,0,0.1875
1582297475833125,1.0625,0.125,0.0625
1582297475856047,-0.0625,0.0625,-0.0625
1582297475877197,-0.8125,0.1875,0
1582297475899140,-0.0625,0.0625,0.125
1582297475915898,0.875,0.125,0.125
1582297475937257,0.1875,0.125,0.3125
1582297475952796,-1.125,0,0.3125
1582297475975730,-0.1875,0.0625,0.0625
1582297475989132,0.5,-0.0625,-0.0625
1582297476003793,0.5,0.0625,-0.0625
1582297476018891,-0.4375,-0.125,0
1582297476041556,-1.0625,0,0.25
1582297476063697,0.25,-0.125,0.1875
1582297476078947,0.375,-0.1875,0.3125
1582297476101391,-0.1875,-0.3125,0.1875
1582297476123388,0.1875,-0.1875,0.125
1582297476138343,-0.8125,-0.125,0.1875
1582297476161432,-0.25,0.3125,0.125
1582297476183180,1.4375,0.1875,0.125
1582297476198132,1.375,0.375,0.25
1582297476221322,0.0625,0.4375,0.125
1582297476243056,-1.0625,0,0.1875
1582297476257971,-0.5,-0.25,0.125
1582297476280917,0.5,-0.125,-0.4375
1582297476303853,0,-0.0625,-0.375
1582297476318816,0.1875,-0.125,-0.25
1582297476340867,1.0625,0.3125,-0.4375
1582297476363694,1.0625,0.375,-0.1875
1582297476378689,0.9375,0.375,0
1582297476400593,1.0625,0.0625,-0.125
1582297476418881,0.0625,-0.0625,0.0625
1582297476438491,-0.75,0.0625,0.125
1582297476461741,-0.3125,0.25,0.1875
1582297476478382,0,0.1875,0.0625
1582297476498827,1.0625,0.3125,-0.0625
1582297476521665,0.6875,0.125,0.0625
1582297476539225,0.5625,0.0625,0.25
1582297476558430,0.1875,0.1875,0.1875
1582297476581314,0.6875,0.1875,0.25
1582297476599066,0.5625,0.125,0.1875
1582297476619068,0.125,0.125,0.3125
1582297476641290,-0.0625,0.0625,0.1875
1582297476658911,1.5,0.125,0.125
1582297476679043,0.3125,0.0625,0.3125
1582297476700943,0,0.125,0.3125
1582297476718746,1.1875,0.25,0.25
1582297476739684,0.5,0.1875,0.4375
1582297476761053,0.625,0,0.5
1582297476778649,0.6875,0.25,0.5625
1582297476799533,1.5,0.0625,0.3125
1582297476821588,0.75,-0.125,0.5625
1582297476838681,0.1875,0.3125,0.375
1582297476860367,0.1875,0.1875,0.5625
1582297476881454,1.8125,0.375,0.5625
1582297476899259,1.6875,0.3125,0.4375
1582297476920200,-0.0625,0.25,0.625
1582297476941328,-0.3125,0.125,0.3125
1582297476959104,-0.125,-0.125,0.1875
1582297476981417,-0.125,-0.3125,0
1582297477009057,0.1875,-0.125,0.0625
1582297477018938,0.4375,-0.0625,-0.0625
1582297477039884,0.3125,0.25,-0.0625
1582297477063974,0.3125,0.25,0.125
1582297477078832,0.625,0.3125,0.0625
1582297477101719,1.1875,-0.125,0.125
1582297477121716,0.125,0,0.25
1582297477138621,-0.75,0.0625,0.3125
1582297477161647,-1.125,0.1875,0.0625
1582297477181601,0.25,0.375,-0.1875
1582297477198918,1,-0.0625,0.1875
1582297477221784,1.125,0.125,0.0625
1582297477241348,-0.25,0.1875,0.125
1582297477259292,-0.5,0.1875,0.0625
1582297477281337,-0.3125,-0.0625,0.1875
1582297477301183,0.1875,-0.1875,0.25
1582297477319204,0,0.0625,0.25
1582297477349051,-0.3125,0.0625,0.25
1582297477364079,-0.3125,-0.0625,0.3125
1582297477378974,0.6875,0.125,0.1875
1582297477400917,0.875,-0.125,0.25
1582297477421064,-0.1875,0,0.1875
1582297477439299,-0.3125,0,0
1582297477461773,-0.6875,-0.5,0.4375
1582297477480899,0.25,-0.0625,0.125
1582297477498659,0.3125,-0.0625,0.125
1582297477521878,0.4375,0.0625,0.4375
1582297477541542,0.6875,-0.25,0.5625
1582297477566484,0.9375,-0.0625,0.375
1582297477581433,-0.125,0.0625,0.375
1582297477601445,1,0.1875,0.5
1582297477618357,1.5625,0.125,0.5625
1582297477640275,0.6875,0.125,0.375
1582297477662263,-0.5625,-0.1875,0.4375
1582297477678224,-0.25,-0.3125,0.25
1582297477700246,-0.4375,-0.5,0.25
1582297477722106,0.25,-0.3125,0.0625
1582297477738018,0.0625,-0.4375,0.0625
1582297477767931,-0.625,0,-0.1875
1582297477781944,-0.25,-0.125,0.125
1582297477798015,0,0,0.0625
1582297477820797,-0.0625,-0.0625,0.0625
1582297477841943,-0.25,-0.0625,0.25
1582297477858112,-1.375,-0.1875,0.3125
1582297477880695,-1.6875,0.0625,0.375
1582297477901638,-0.1875,-0.125,0.375
1582297477917590,-0.125,0.1875,0.1875
1582297477940471,-0.5625,0.1875,0.25
1582297477969579,-0.4375,0.1875,0
1582297477978377,0.4375,0,-0.1875
1582297478000309,0.1875,-0.125,0
1582297478023255,0.5,0.0625,-0.0625
1582297478038209,0.75,0.125,-0.125
1582297478060324,-0.3125,0.25,0.0625
1582297478083089,-0.1875,0.125,-0.0625
1582297478098063,-0.1875,0,-0.125
1582297478120987,-1.1875,-0.25,0.0625
1582297478142933,-0.9375,-0.3125,0.125
1582297478157891,-1.375,0,0.125
1582297478180884,-1.1875,-0.0625,0.25
1582297478202831,0.0625,0.125,0.0625
1582297478217727,-0.25,-0.25,0.375
1582297478241012,-0.9375,0.0625,0.125
1582297478262760,-1.75,0,0.125
1582297478277630,-2.0625,0,0.1875
1582297478300513,-0.5,-0.0625,0.3125
1582297478323463,0.0625,0.0625,0.5
1582297478337418,0.0625,0.125,0.25
1582297478360352,-0.5,0.0625,0.5625
1582297478383522,-0.9375,0.125,0.375
1582297478397496,-0.375,0.125,0.4375
1582297478420187,0.9375,0.25,0.25
1582297478443380,0.9375,0.0625,0.3125
1582297478457409,-1.375,0.3125,0.1875
1582297478480210,-2.1875,0.0625,0.1875
1582297478502968,-1.125,-0.5,0.375
1582297478523964,0,-0.4375,0.25
1582297478540870,-0.375,-0.1875,0.125
1582297478563154,-0.75,-0.125,0.25
1582297478584748,-0.75,-0.125,0.375
1582297478600707,0.25,0.1875,0.1875
1582297478622982,0.125,0.125,0.3125
1582297478644591,0.5625,-0.25,0.375
1582297478660828,-0.375,-0.125,0.375
1582297478683492,-0.375,0.0625,0.3125
1582297478704829,-0.8125,0.125,0.375
1582297478720392,0.5625,0.25,0.3125
1582297478743385,0.125,-0.125,0.25
1582297478764497,0.375,0.1875,0.125
1582297478780347,-0.3125,0.0625,0.25
1582297478803170,-0.0625,-0.0625,0.4375
1582297478824254,0.1875,0,0.375
1582297478841064,0.3125,0.0625,0.3125
1582297478863044,0,0.125,0.3125
1582297478884012,-0.1875,-0.1875,0.3125
1582297478900906,0.375,0.125,0.0625
1582297478922848,0.4375,0,0
1582297478951765,0.0625,0.125,0.0625
1582297478960806,0.625,-0.0625,0
1582297478983131,-0.25,-0.0625,0.3125
1582297479005677,-0.1875,0,0.0625
1582297479020639,-0.375,-0.0625,-0.0625
1582297479043527,1,-0.25,0.125
1582297479065461,1.1875,0.125,0.0625
1582297479080428,0.8125,0.3125,-0.125
1582297479103359,0.6875,0.375,-0.125
1582297479125381,1.4375,0.4375,-0.0625
1582297479140260,1.8125,0.125,0.125
1582297479163262,1.25,0.0625,0.125
1582297479185194,0.3125,0.1875,-0.1875
1582297479200105,0.5625,-0.125,-0.125
1582297479229215,1.0625,0.125,0
1582297479245981,1.9375,0.1875,-0.0625
1582297479259983,2.0625,0.6875,0
1582297479282888,1.9375,0.5625,0
1582297479305830,0.5,0.25,0.375
1582297479319786,0.125,0.1875,0.0625
1582297479342873,-0.5,-0.3125,0.125
1582297479365715,-0.125,-0.1875,0.0625
1582297479379629,0.8125,-0.1875,-0.125
1582297479403555,1.1875,0.3125,-0.125
1582297479425542,0.5625,0.1875,0.0625
1582297479439550,1.375,0.4375,0
1582297479463457,1.75,0.1875,0.0625
1582297479485336,1.25,-0.0625,0.125
1582297479508341,-0.3125,-0.1875,0.4375
1582297479523236,0.125,0.0625,0.1875
1582297479545341,0.1875,0.1875,0.375
1582297479567124,0.375,0.125,0.5
1582297479583249,0.5,0.1875,0.4375
1582297479606016,-0.0625,0,0.4375
1582297479627179,0.5,0.0625,0.25
1582297479643236,0.6875,0.0625,0.25
1582297479665855,0.875,0.1875,0.3125
1582297479686942,0.6875,0.1875,0.25
1582297479702816,0.25,0.0625,0.4375
1582297479725753,0.3125,0.1875,0.3125
1582297479747163,0.125,0.125,0.375
1582297479763592,0.5625,-0.125,0.375
1582297479785538,0.625,0.125,0.25
1582297479806533,0.6875,0.25,0.3125
1582297479823446,0.5,0.1875,0.5
1582297479845627,-0.125,0.125,0.5625
1582297479866317,-0.3125,0.3125,0.5
1582297479883279,-0.0625,0,0.4375
1582297479905276,0.5625,0.125,0.4375
1582297479928211,0.6875,0.25,0.375
1582297479943443,-0.6875,0.375,0.25
1582297479965378,-1.75,-0.125,0.1875
1582297479987997,-0.0625,0.375,-0.0625
1582297480002959,0.6875,0.3125,0.1875
1582297480025900,-0.25,0.4375,-0.125
1582297480048373,0.125,0.1875,0.1875
1582297480062816,-0.25,0.25,0.1875
1582297480085736,-0.6875,0.5625,0.0625
1582297480108099,0.4375,0.4375,0.25
1582297480122634,0.25,0.5,0.25
1582297480145627,-0.375,0.5625,0.1875
1582297480167724,-0.8125,0.3125,0.0625
1582297480182483,-0.625,0.25,0.125
1582297480205858,0.4375,0.125,-0.125
1582297480235390,-0.625,0.1875,0.0625
1582297480242313,0,0.5625,-0.0625
1582297480265250,0.1875,0.5625,0.1875
1582297480288236,0.75,0.5625,0.75
1582297480302150,-0.5,0.875,0.75
1582297480325291,-0.25,0.5,0.9375
1582297480348077,-0.125,0.125,1
1582297480361997,-0.625,0.1875,1.125
1582297480385928,-1.6875,0.3125,1.25
1582297480407868,-2.75,0.4375,1.5
1582297480429814,-2.25,0.6875,1.6875
1582297480445832,-1.1875,0.75,1.9375
1582297480467880,-1.5,0.625,1.8125
1582297480488882,-3.125,0.125,2.25
1582297480505618,-4.8125,0.0625,2.3125
1582297480528545,-4.375,-0.25,2.5625
1582297480549553,-3.375,0.3125,2.75
1582297480565453,-1.8125,0.625,2.6875
1582297480588407,-1.5,0.6875,3
1582297480616397,-0.6875,0.75,3.0625
1582297480625345,-2.0625,0.6875,3.125
1582297480648230,-2.375,0.75,3.0625
1582297480670167,-1.5,0.0625,2.8125
1582297480685323,-0.375,0.125,2.4375
1582297480708075,-1.9375,0.75,2.3125
1582297480729220,-1.9375,0.6875,2.75
1582297480745963,-0.75,0.0625,2.8125
1582297480767908,-1.4375,0.3125,2.0625
1582297480789316,-2.1875,0.125,1.875
1582297480805860,0.25,-0.1875,1.8125
1582297480827807,1.375,0.375,1.5
1582297480850749,0.4375,0,1.0625
1582297480865654,0,0.25,0.8125
1582297480895867,0.0625,0.0625,0.8125
1582297480910530,-0.0625,0.125,0.9375
1582297480925679,0.25,0.625,0.5
1582297480948437,0.5,0.6875,0.4375
1582297480970413,0.125,0.3125,0.4375
1582297480976645,-0.625,0.0625,0.6875
1582297480991532,-0.0625,0.5,0.1875
1582297481013733,-0.875,-0.0625,0.125
1582297481036322,-1.9375,-0.25,-0.0625
1582297481051525,-2.1875,-0.5625,-0.375
1582297481073544,-2.25,-0.4375,-0.5
1582297481096190,-2.625,-0.75,-0.375
1582297481111190,-0.4375,-0.375,-0.6875
1582297481133926,-0.8125,-0.1875,-0.625
1582297481155919,-0.6875,-0.3125,-0.4375
1582297481173905,-1.625,0.4375,-0.625
1582297481193832,0.1875,0.5,-0.875
1582297481224878,1.375,-0.125,-0.625
1582297481230882,1.25,0.375,-1
1582297481253797,-0.0625,0.8125,-1.4375
1582297481276551,-0.3125,0.4375,-0.9375
1582297481291632,1.875,0.0625,-0.625
1582297481313896,0.625,0.8125,-0.9375
1582297481336391,-1.75,0.6875,-0.8125
1582297481351525,-1.3125,0.0625,-0.625
1582297481373533,-0.3125,0.0625,-0.75
1582297481405403,-0.5,-0.5625,-0.6875
1582297481411376,0.625,-0.0625,-1.125
1582297481433131,0.25,-0.25,-0.625
1582297481456106,1.375,0.375,-0.9375
1582297481472177,1.4375,0.6875,-1.0625
1582297481494031,2.125,0.9375,-0.9375
1582297481518895,2.4375,0.875,-1
1582297481532226,-0.125,0.1875,-0.5625
1582297481553986,-2.875,-0.1875,-0.375
1582297481577773,-3.5625,-0.4375,0.0625
1582297481592700,-3.25,-0.5625,0
1582297481614085,-4.125,-0.8125,-0.1875
1582297481636582,-6.5,-1.0625,-0.125
1582297481652555,-6.875,-0.8125,-0.0625
1582297481673754,-2.6875,-0.625,-0.3125
1582297481696514,-0.25,-0.25,-0.4375
1582297481712706,-0.75,0.3125,-0.875
1582297481733325,-2.625,0.4375,-1.125
1582297481756332,-4.0625,1.0625,-1.0625
1582297481772223,-2.0625,1.3125,-1.25
1582297481793366,-0.4375,1.875,-0.625
1582297481816334,0.375,2.0625,-0.5
1582297481838530,-1.1875,2.4375,-0.5625
1582297481853262,-2.875,1.4375,-0.4375
1582297481876254,-0.5625,0.625,-0.3125
1582297481893894,0.9375,-0.3125,-0.5625
1582297481913901,-5.5625,-0.4375,-0.4375
1582297481931800,-10.9375,0.375,-0.5625
1582297481953841,-8.5625,-0.5625,-0.5625
1582297481974065,-3.125,-1.125,-0.625
1582297481991631,-0.75,0,-1
1582297482013574,0.6875,1.375,-2
1582297482033813,-1.125,1.9375,-1.4375
1582297482056464,1.375,2,-0.9375
1582297482073575,1.0625,2.1875,-0.625
1582297482093584,-0.375,2.8125,-0.5625
1582297482111311,0,2.0625,0
1582297482134330,-0.25,1.25,0.125
1582297482153363,-1.4375,1.625,-0.5
1582297482171520,-2.375,2.0625,-1.3125
1582297482194098,-1.0625,1.6875,-1.6875
1582297482214043,0.75,1.1875,-1.4375
1582297482231494,1.625,1.8125,-1.6875
1582297482253934,-1.125,1.875,-1.125
1582297482274059,-0.8125,1.875,-0.625
1582297482291462,1.1875,1.4375,-0.375
1582297482314237,1.1875,0.5,0.625
1582297482333737,-1,-0.375,0.5625
1582297482355950,-0.5,-0.875,-0.125
1582297482373610,-0.3125,-1.6875,0
1582297482394735,-0.0625,-2,-0.25
1582297482411509,0.375,-1.6875,-0.5625
1582297482434011,0.5625,-1.5625,-1.0625
1582297482454572,0.4375,-0.875,-1.0625
1582297482471348,0.1875,-0.25,-1.0625
1582297482494299,1.25,-0.375,-1.5625
1582297482515241,1.0625,-0.125,-1.8125
1582297482532357,0.75,-0.5625,-1.8125
1582297482558334,0.25,-0.25,-2.25
1582297482575076,0.375,-0.0625,-2.4375
1582297482591809,1.0625,-0.5625,-1.8125
1582297482612971,2.0625,-0.875,-1.3125
1582297482634911,0.75,0.125,-1.5
1582297482656930,0.5,0.1875,-1.625
1582297482672814,2.5,0.125,-1.25
1582297482694757,4.4375,-0.5,-0.5
1582297482710768,4.4375,0.3125,-0.375
1582297482732806,1.5625,-0.25,0.375
1582297482755806,-1.5625,-0.8125,0.9375
1582297482770603,-3.1875,-0.5,0.9375
1582297482793488,-2.5,-1.1875,1.75
1582297482815434,0.375,-0.9375,1.625
1582297482838366,4.0625,-0.6875,1.3125
1582297482853331,1.375,0.1875,1.5625
1582297482875267,-1.5,-0.0625,1.1875
1582297482890227,-0.9375,-0.25,0.375
1582297482913207,-0.8125,-0.6875,0.3125
1582297482935206,3.1875,-0.8125,-0.25
1582297482957156,5.125,-0.0625,-0.4375
1582297482973094,5.375,0.0625,-0.1875
1582297482995944,2.75,-0.75,0.5
1582297483010131,-0.5625,-1.625,0.4375
1582297483033003,-4.25,-2.25,-0.0625
1582297483055827,-5.9375,-3,0.3125
1582297483069751,-3,-2.875,0.5
1582297483094678,-3.1875,-2.3125,0.9375
1582297483116322,-5.9375,-0.8125,1
1582297483129642,-6,0,0.8125
1582297483152671,-6,-0.125,1.625
1582297483175468,-2.125,-0.125,1.75
1582297483189623,-1.0625,-0.125,1.1875
1582297483213413,-6.4375,-0.3125,1.1875
1582297483235304,-10.4375,-0.5625,-0.0625
1582297483256391,-8.1875,-0.25,-1.4375
1582297483273216,-0.875,0.875,-1.4375
1582297483295411,6.75,2.1875,-2.375
1582297483317084,11.75,4.125,-2.875
1582297483333193,14.125,5.3125,-3.375
1582297483356091,13.875,6.5625,-2.9375
1582297483377147,14.6875,6.1875,-0.9375
1582297483392886,18.1875,5.8125,-1.5
1582297483415828,11.375,3.4375,-0.3125
1582297483436956,0.375,4.25,0.3125
1582297483452729,5.1875,4,2.375
1582297483475721,8.875,1.6875,3.9375
1582297483496800,7.0625,0.1875,7.9375
1582297483512760,2,3.5625,7.0625
1582297483535503,-20,-1.6875,11.6875
1582297483558447,-32.8125,0.25,9.5
1582297483572805,-44.875,2,6.625
1582297483595348,-51,0.375,0.25
1582297483616318,-83.5,2.0625,-8.125
1582297483632382,-120.75,-1.4375,-8.5
1582297483655330,-98.8125,5.1875,-17.875
1582297483680169,-73.25,4.6875,-32.0625
1582297483692081,-42.625,1.3125,-57.625
1582297483715836,-7.3125,15.4375,-85.5625
1582297483738160,5.9375,42,-94.5625
1582297483752253,42.9375,70.4375,-100.5
1582297483775914,66.9375,90.0625,-104
1582297483797800,81.4375,94.1875,-105.5
1582297483812767,72.8125,89.625,-103.438
1582297483841884,59.875,94.1875,-97.375
1582297483857787,45.625,108.188,-87.1875
1582297483879604,21.4375,123.25,-77.625
1582297483896769,18.0625,123.625,-65.5625
1582297483918476,28.4375,117,-58.5625
1582297483947034,29.625,107,-61.625
1582297483955378,26.375,100.563,-67.6875
1582297483978383,10.8125,96.5,-58.625
1582297483999324,-10.125,86.6875,-37.25
1582297484015510,-10.625,75.3125,-28.0625
1582297484038223,-1.875,65.4375,-30.1875
1582297484059477,8.1875,51.5,-35.8125
1582297484076054,10.5,42.3125,-34.375
1582297484098183,-9.375,45.8125,-23.9375
1582297484119454,-30.3125,42.4375,-9.25
1582297484135902,-16.5625,25.375,-5.875
1582297484164053,12.4375,7.375,-4.3125
1582297484178925,14.9375,4.875,-5.5
1582297484195793,15.5,8,-11.9375
1582297484225712,-0.5625,12.25,-7.25
1582297484239676,-8.75,14.25,0.9375
1582297484255989,8.5625,7.8125,0.9375
1582297484277841,22.4375,2.6875,-0.6875
1582297484299456,23.375,3.125,-9.1875
1582297484315428,6.375,1.125,-6.875
1582297484344562,-5.9375,-1.9375,1.1875
1582297484360351,5.1875,8.75,2
1582297484375303,18,5.4375,-1.25
1582297484398203,4.6875,-0.625,1.5
1582297484419390,-0.8125,-5.125,-0.125
1582297484435290,-7.6875,-1.625,-1.375
1582297484458039,-2.8125,5.125,-4
1582297484479313,0.875,7.1875,-8.1875
1582297484502084,3,2.3125,-7.375
1582297484517871,-2.375,-1.125,-4.75
1582297484538815,-8.4375,0.6875,-4
1582297484555777,-4.9375,2.6875,-4.5
1582297484583912,-3.3125,3.875,-5.3125
1582297484598652,-7.4375,2.875,-3.9375
1582297484615610,-8.5625,-0.6875,-2.8125
1582297484637691,-5.5625,-3.75,-1.75
1582297484660491,-5.0625,-2.4375,-2.375
1582297484675453,-9.1875,0.3125,-3.5
1582297484698388,-6.0625,-0.6875,-5
1582297484720342,-4.75,-1.4375,-4.0625
1582297484735352,-3.1875,-1.875,-1.6875
1582297484758235,-1.875,-0.625,-1.0625
1582297484781183,-5.25,0.3125,-1.5
1582297484795130,1.625,-1.8125,-2.125
1582297484818122,2.875,-1.125,-3.0625
1582297484840215,-3.1875,0.25,-3.9375
1582297484855020,-11.4375,1.0625,-3.5
1582297484877918,-9,-0.125,-3.0625
1582297484900854,-2.875,-2.125,-2.375
1582297484914946,-4.8125,-0.8125,-1.4375
1582297484937759,-1.9375,0.8125,0.125
1582297484960691,-2.6875,0.375,0.6875
1582297484974651,-4,-0.125,-1
1582297484997588,-6.375,1.625,-1.6875
1582297485020532,-5.0625,2.5,0.9375
1582297485034687,0.0625,3,0.6875
1582297485058432,1.8125,2.5,-0.0625
1582297485080385,1.5625,1.5,-0.1875
1582297485095392,-3.3125,-0.3125,0.0625
1582297485118265,-6.375,-4.875,0.0625
1582297485140396,-7.8125,-10,1.3125
1582297485162197,0.8125,-18.5625,5.125
1582297485178388,9.4375,-26.9375,8.625
1582297485200250,8.9375,-28.625,9.9375
1582297485222050,10.5625,-35.5,11.6875
1582297485237956,11.75,-47.0625,21.0625
1582297485260944,25.125,-53.8125,22.75
1582297485281986,30.875,-56.8125,18.6875
1582297485297786,31.0625,-67.4375,26.125
1582297485320783,23.25,-83.0625,35.875
1582297485341830,21.5625,-95.5,42.375
1582297485358038,21.625,-105.063,52
1582297485380607,11.625,-108.688,59.6875
1582297485401718,1.1875,-106.875,69.6875
1582297485417528,-10.3125,-105,80.4375
1582297485440418,-15.4375,-102.688,91.25
1582297485461803,-12.625,-101.875,99.375
1582297485477309,-12.625,-95.4375,107.188
1582297485500414,-20.75,-84.875,111
1582297485521340,-40.5625,-81.5625,106.688
1582297485537153,-56.9375,-80.0625,100.375
1582297485561083,-47.75,-75.625,93.5
1582297485582025,-45.4375,-59.375,83.8125
1582297485597137,-46.6875,-45.375,73.1875
1582297485620920,-42.75,-38.4375,58.125
1582297485642865,-9.5,-29.8125,49.125
1582297485657821,-0.1875,-16.8125,46.4375
1582297485680997,-4.75,-8.25,45
1582297485702701,13.3125,-8.5625,34.6875
1582297485717662,19.0625,-7,27
1582297485740656,13,0.5,18.6875
1582297485762737,17.0625,1.9375,6.3125
1582297485785540,24.625,-2.1875,-6
1582297485800445,19.875,-9.25,-10
1582297485823378,-3.4375,-8.75,6.125
1582297485844366,-7.5,-4.6875,7.4375
1582297485860328,-6.1875,-3.25,1.75
1582297485892254,-6.375,2.25,3.5625
1582297485897490,9.4375,1.75,4.5
1582297485920167,22.8125,-0.5,5.25
1582297485943064,22.75,1.75,5.375
1582297485964143,21.5,-2.8125,3
1582297485980958,16.5,-2.6875,0.1875
1582297486002902,14.125,-2.875,0.375
1582297486008889,13.625,-2.625,-2.5
1582297486030824,5.3125,-2.375,-2.1875
1582297486046002,4.3125,-2.8125,-1.5625
1582297486068945,8.25,-0.25,-3.3125
1582297486084682,6.5,0.9375,-3.0625
1582297486107690,3.6875,0.375,-1.9375
1582297486128770,4.1875,0.25,-0.4375
1582297486144907,2.6875,1.1875,-1.6875
1582297486167677,-1.125,-0.375,-0.6875
1582297486188410,-2.3125,0,-0.4375
1582297486205364,-0.9375,0.125,-0.9375
1582297486226788,-3.1875,-0.3125,-0.5625
1582297486248478,-3.8125,-0.8125,-0.0625
1582297486265202,-0.75,-0.625,0
1582297486286280,2.0625,0.6875,0.4375
1582297486308493,2.625,1.3125,-0.5
1582297486326758,0.8125,1.4375,-0.375
1582297486346184,-0.25,0.5625,-0.625
1582297486369021,1.8125,-0.0625,-1.1875
1582297486384940,1.3125,0,-1.5
1582297486405947,0.25,0.125,-1.625
1582297486428948,-2.8125,0.9375,-1.6875
1582297486446711,-3.875,0.25,-1.0625
1582297486465726,-3.125,-0.9375,0.1875
1582297486488640,-1.8125,-0.6875,0.1875
1582297486504756,-2.25,-0.0625,-0.0625
1582297486526499,-4.8125,-0.3125,0.9375
1582297486548863,-5.625,-1.6875,1.625
1582297486566390,-2.5,-1.625,0.875
1582297486586385,-3.9375,-2.0625,0.5
1582297486608693,-5.875,-1.5,0.1875
1582297486626239,-3.75,-1.3125,-0.625
1582297486646374,-0.5,-1.0625,-0.75
1582297486669117,-0.625,0.5,-1
1582297486686074,-1.9375,0.5625,-0.9375
1582297486706348,-2.375,0.75,-0.5625
1582297486728183,0.0625,1.3125,-1.1875
1582297486746164,0.1875,1,-0.75
1582297486765912,-0.3125,1.0625,-0.25
1582297486789006,-1.0625,0.9375,0
1582297486812731,-1.625,0.8125,0.375
1582297486825826,-0.875,0.6875,0.5
1582297486848689,-2.25,0.5625,1.0625
1582297486866731,-4.0625,-0.6875,0.8125
1582297486885745,-2.5,-0.625,-0.25
1582297486908939,-0.125,0.875,0
1582297486926429,-1,-0.3125,-1
1582297486946484,0.5625,-0.5,-0.6875
1582297486968749,-1.5,0.625,-0.4375
1582297486986785,0.0625,0.8125,-0.625
1582297487007212,2.75,-0.0625,-0.5625
1582297487028629,1.3125,0.1875,0.0625
1582297487046111,-3,-0.4375,0.4375
1582297487066276,-2.125,0.3125,-0.1875
1582297487088332,-0.625,-0.375,-0.75
1582297487105947,-1.9375,-0.125,0
1582297487134214,-1.4375,-0.5,0
1582297487148840,-0.0625,-0.125,-0.125
1582297487166785,-0.5,-0.125,-0.1875
1582297487187729,-0.625,0,-0.375
1582297487208734,0.0625,0,-0.6875
1582297487226625,0.375,-0.125,-0.875
1582297487247801,-0.8125,0.1875,-0.5625
1582297487275713,0.125,0.25,-0.6875
1582297487286465,0.375,0.125,-0.625
1582297487308759,0.125,0.0625,-0.5625
1582297487331468,-0.375,-0.0625,-0.375
1582297487346362,-2.25,0.4375,-0.125
1582297487367295,-1.25,-0.0625,-0.375
1582297487388244,-1.9375,-0.4375,0.25
1582297487406149,-0.9375,-0.375,-0.25
1582297487427480,-0.75,-0.5,-0.25
1582297487448920,-1.1875,-0.1875,-0.3125
1582297487466169,0.3125,0,-0.5
1582297487488922,-1.375,-0.375,0.125
1582297487509288,-0.25,-0.125,-0.25
1582297487531116,-0.1875,0.25,-0.3125
1582297487556741,-0.375,-0.4375,0.25
1582297487563729,0.5,-0.25,-0.125
1582297487586661,-0.6875,-0.125,-0.1875
1582297487608607,-0.625,-0.125,0
1582297487623697,-0.1875,0.0625,-0.125
1582297487645506,-0.5,-0.125,-0.0625
1582297487668441,1.5,-0.625,-0.5
1582297487689445,0,-0.5,-0.0625
1582297487705409,-1.0625,0.25,-0.1875
1582297487728281,-1.0625,0.3125,-0.25
1582297487742597,0,0.3125,-0.0625
1582297487765300,0.375,0.375,-0.125
1582297487788197,-1,-0.25,-0.1875
1582297487802083,-1.5625,0.125,-0.5
1582297487833002,-2.25,-0.25,-0.4375
1582297487848222,-2.5,-0.5,-0.375
1582297487862116,-0.6875,-0.25,-0.625
1582297487885860,-0.6875,0.0625,-0.875
1582297487913846,-1.3125,0.1875,-0.5625
1582297487922763,-0.6875,0.1875,-0.5625
1582297487945751,-0.3125,-0.25,-0.4375
1582297487967831,-0.625,-0.0625,-0.5625
1582297487989635,-2.5,-0.25,-0.375
1582297488005793,-2.875,-0.375,-0.3125
1582297488027703,-1.5625,-0.0625,-0.375
1582297488056835,-0.375,-0.1875,-0.375
1582297488065381,-0.1875,0.25,-0.625
1582297488088321,-0.625,0.125,-0.5625
1582297488110321,0.25,0.0625,-0.625
1582297488126238,0.0625,-0.0625,-0.25
1582297488148159,-0.4375,0.0625,-0.3125
1582297488169334,-0.9375,0.0625,-0.1875
1582297488185284,-0.9375,0.125,-0.1875
1582297488208043,-0.9375,0.125,0
1582297488229351,0.0625,-0.0625,-0.1875
1582297488245896,-0.3125,0.125,0
1582297488267843,-1,-0.25,0.125
1582297488288844,-1.25,0.0625,-0.3125
1582297488305783,-0.5,-0.25,-0.125
1582297488327837,-0.5,-0.25,-0.125
1582297488348623,0.375,-0.0625,-0.125
1582297488365577,-0.75,-0.5625,0.3125
1582297488387647,0.875,0.125,0.125
1582297488409514,1.4375,0.1875,0.1875
1582297488425424,0.6875,0.5,0.1875
1582297488448360,0.5,0,0.3125
1582297488470344,-0.25,0,0.3125
1582297488485493,-0.625,-0.1875,0.125
1582297488508255,-2.125,-0.4375,0.375
1582297488530236,-1.0625,-0.5625,-0.0625
1582297488545167,-2.0625,-0.6875,-0.0625
1582297488568237,-1.625,-0.5625,0
1582297488590973,-0.625,0.0625,-0.125
1582297488605134,-0.5,0.25,0.125
1582297488627879,0.125,0.0625,0.75
1582297488650815,1.125,0.125,0.9375
1582297488665082,-0.4375,0,0.9375
1582297488695700,-2.125,-0.0625,1
1582297488717696,-0.9375,-0.375,0.75
1582297488724645,-0.8125,0.1875,0.625
1582297488747859,0.5,0.5625,0.0625
1582297488770558,1.625,1,-0.0625
1582297488784455,2.6875,1.1875,-0.375
1582297488808392,2.0625,1.0625,-0.125
1582297488830529,2,1.0625,-0.1875
1582297488845293,1.875,0.6875,-0.0625
1582297488868239,1.125,-0.1875,0.4375
1582297488890293,0.3125,0,0
1582297488913379,-2.25,-0.375,0.0625
1582297488928105,-2.875,-0.5625,0.125
1582297488950533,0.1875,-0.3125,-0.0625
1582297488971964,1.0625,-0.5,-0.1875
1582297488988107,-1.0625,-0.5625,-0.25
1582297489010877,-2.5625,-0.4375,-0.375
1582297489031980,-2.1875,-0.6875,-0.125
1582297489053892,-0.5625,-0.5,0.25
1582297489070750,-0.375,-0.5625,-0.125
1582297489091846,-1.375,-0.125,-0.0625
1582297489107871,-1.9375,-0.4375,0.125
1582297489130586,-1.0625,-0.0625,0.3125
1582297489151680,0.5625,0.3125,0.0625
1582297489168428,0.6875,0.125,0.25
1582297489190378,-1.625,0.0625,0.375
1582297489219514,-3.125,-0.3125,0.1875
1582297489228267,-3.25,-0.8125,-0.1875
1582297489250446,-1.4375,-0.875,-0.3125
1582297489271355,0.75,-0.5625,-0.4375
1582297489288312,-0.9375,-0.25,-0.5625
1582297489310247,-2.0625,0.125,-0.625
1582297489331994,-0.5,0,-0.5
1582297489348065,0.8125,0.125,-0.4375
1582297489370894,1.0625,0.0625,-0.4375
1582297489392830,-0.125,-0.3125,-0.25
1582297489407789,-1.6875,-0.1875,-0.125
1582297489430728,-1.75,-0.25,-0.125
1582297489452667,-1.1875,-0.25,-0.125
1582297489467774,-1.375,-0.375,0
1582297489498178,-1.125,-0.625,-0.125
1582297489512702,-2.125,-0.5625,-0.25
1582297489527719,-1.625,-0.4375,-0.125
1582297489550603,-0.5,-0.375,-0.25
1582297489580337,-0.5625,-0.0625,-0.1875
1582297489587316,-0.25,0,-0.3125
1582297489610250,0.125,0.1875,-0.375
1582297489633414,-0.1875,-0.125,-0.3125
1582297489647149,-0.25,0.125,-0.4375
1582297489670286,0.5625,0.0625,-0.5
1582297489693068,-0.0625,-0.25,-0.4375
1582297489706991,-0.625,0.0625,-0.4375
1582297489730925,0.1875,-0.0625,-0.5
1582297489752872,-0.3125,0,-0.4375
1582297489775936,-0.375,0.1875,-0.625
1582297489790764,0,0,-0.625
1582297489812881,-0.3125,0.3125,-0.625
1582297489834647,0.8125,0.125,-0.5
1582297489851608,1.9375,0.1875,-0.375
1582297489880575,1.1875,0.375,-0.375
1582297489894838,1.125,-0.0625,-0.125
1582297489918429,-0.6875,0.0625,0.125
1582297489933396,-0.5625,0.125,0.125
1582297489954378,1.875,0.25,0.125
1582297489970288,2,0.25,0.1875
1582297489993228,0.0625,0.375,0.125
1582297490014175,-1.25,0,0.0625
1582297490030123,-0.4375,-0.0625,-0.25
1582297490053061,0.6875,-0.5,-0.3125
1582297490074060,-0.3125,-0.5,-0.625
1582297490090959,-1.0625,-0.3125,-0.8125
1582297490113209,-1,-0.1875,-0.75
1582297490134843,-0.5,-0.25,-0.375
1582297490150804,1.125,-0.25,-0.5
1582297490172738,1.5625,0.1875,-0.3125
1582297490194745,0,0.0625,0
1582297490210917,-1.3125,0.3125,0.0625
1582297490232831,-0.3125,-0.0625,0.1875
1582297490254523,0.125,0.125,-0.0625
1582297490270749,0.6875,0.125,-0.1875
1582297490293424,0.4375,0.125,-0.1875
1582297490314567,-0.25,0.1875,-0.0625
1582297490329377,0.5,0.25,-0.25
1582297490353269,0.9375,-0.0625,-0.25
1582297490375324,1.125,-0.125,-0.0625
1582297490390291,-0.3125,0,-0.3125
1582297490413109,-0.6875,0.0625,-0.25
1582297490435245,0.25,-0.125,-0.375
1582297490450067,0,-0.3125,-0.125
1582297490472999,-1,-0.1875,-0.1875
1582297490495940,-0.5,-0.3125,-0.3125
1582297490509845,-0.6875,-0.3125,0
1582297490532778,-0.9375,-0.3125,0.0625
1582297490555717,-0.625,-0.25,-0.1875
1582297490569682,-1,-0.4375,-0.1875
1582297490592797,-1.25,-0.1875,-0.125
1582297490615629,-0.1875,-0.1875,-0.125
1582297490629606,0.4375,-0.1875,0.0625
1582297490660442,-0.9375,-0.125,-0.0625
1582297490675404,-0.4375,-0.3125,0
1582297490689561,-1.0625,0.1875,-0.125
1582297490720347,-0.5,0.125,-0.125
1582297490735235,0.8125,0.25,-0.25
1582297490750195,1.6875,0.5,-0.4375
1582297490773191,0.0625,0.375,-0.3125
1582297490796134,-2.125,0.0625,-0.1875
1582297490810034,-1.8125,-0.375,-0.25
1582297490832978,-0.375,-0.375,-0.375
1582297490855922,-0.6875,-0.375,-0.5
1582297490884837,-1.25,-0.1875,-0.625
1582297490892823,-0.75,-0.125,-0.5
1582297490915759,-0.9375,-0.0625,-0.5
1582297490936754,0.6875,0.3125,-0.5625
1582297490952786,0.5625,-0.125,-0.25
1582297490976590,0,0.0625,-0.125
1582297490996539,-0.6875,-0.25,-0.125
1582297491013494,-1.3125,-0.25,0.125
1582297491035440,-1.4375,0,-0.0625
1582297491040420,0.4375,0.0625,-0.3125
1582297491063361,0.125,0,-0.0625
1582297491078763,-0.125,-0.1875,-0.125
1582297491101450,0.125,-0.0625,-0.125
1582297491123402,0.0625,0.0625,-0.25
1582297491138391,-0.8125,0,-0.0625
1582297491164096,0,-0.3125,0
1582297491183458,0,-0.25,-0.1875
1582297491198849,-0.3125,-0.0625,-0.25
1582297491221285,-0.5,0.0625,-0.25
1582297491246530,0,-0.125,0.125
1582297491258893,0.1875,0,-0.125
1582297491280830,-0.1875,0.0625,-0.0625
1582297491298729,-0.4375,-0.3125,0.0625
1582297491318875,-0.4375,0,0.125
1582297491340810,-0.625,-0.1875,0.0625
1582297491363758,-0.5625,-0.125,0
1582297491378745,0,-0.125,0.125
1582297491401510,-0.0625,0,0.375
1582297491418583,0.375,0.5625,-0.1875
1582297491438439,0.375,0.25,-0.625
1582297491461411,2.625,-0.25,-0.5
1582297491479255,2.5625,0.3125,-0.4375
1582297491498245,2.4375,0.4375,-0.6875
1582297491521287,-0.1875,0.1875,-0.0625
1582297491539089,-1.5,0.3125,0.3125
1582297491559077,-2.9375,-0.25,0.5
1582297491580976,-3.75,-0.5,0.75
1582297491598929,-4.5,-1.0625,0.9375
1582297491618964,-3.3125,-0.6875,0.375
1582297491641020,-2.0625,-0.875,-0.0625
