timestamp,roll,pitch,yaw
1582297428085858,2.18833,0.0209104,-1.10392
1582297428109800,2.17572,0.021691,-1.05206
1582297428125998,2.16048,0.0210413,-1.00272
1582297428146724,2.14127,0.0167343,-0.956826
1582297428169635,2.11749,0.00314427,-0.911374
1582297428184594,2.09026,-0.0185529,-0.86544
1582297428206619,2.05749,-0.0437324,-0.8182
1582297428252456,2.02614,-0.0795954,-0.771355
1582297428252456,1.98741,-0.124967,-0.724768
1582297428267420,1.94071,-0.181336,-0.675699
1582297428290487,1.89423,-0.246907,-0.625383
1582297428305483,1.86044,-0.311093,-0.583143
1582297428335339,1.84713,-0.372221,-0.55485
1582297428374087,1.85705,-0.441916,-0.541531
1582297428374087,1.86139,-0.526992,-0.527487
1582297428387088,1.84477,-0.627836,-0.493954
1582297428418027,1.80886,-0.725163,-0.452552
1582297428424960,1.79057,-0.811512,-0.438901
1582297428449886,1.78889,-0.819315,-0.4266
1582297428469842,1.84288,-0.801518,-0.464947
1582297428485794,1.83678,-0.776678,-0.468084
1582297428508743,1.81662,-0.745403,-0.463179
1582297428530672,1.79608,-0.731459,-0.45411
1582297428545871,1.76856,-0.732733,-0.444972
1582297428568580,1.75015,-0.746235,-0.442465
1582297428590519,1.74943,-0.757162,-0.447652
1582297428605528,1.75938,-0.76136,-0.454859
1582297428628470,1.76749,-0.760243,-0.457247
1582297428651348,1.7677,-0.758183,-0.454759
1582297428665318,1.75809,-0.758737,-0.450222
1582297428694236,1.74876,-0.758492,-0.446018
1582297428711193,1.74806,-0.758195,-0.444609
1582297428725156,1.74882,-0.758188,-0.444053
1582297428751203,1.74841,-0.757253,-0.44241
1582297428764052,1.74742,-0.756246,-0.440944
1582297428784998,1.74744,-0.75708,-0.441018
1582297428807129,1.75382,-0.752309,-0.444032
1582297428821314,1.73188,-0.757316,-0.427404
1582297428844830,1.72075,-0.76204,-0.419145
1582297428867204,1.73664,-0.758027,-0.429223
1582297428880784,1.76043,-0.747319,-0.443849
1582297428904866,1.7601,-0.742575,-0.441909
1582297428926808,1.73621,-0.749545,-0.424314
1582297428941631,1.74101,-0.752083,-0.426017
1582297428964659,1.74322,-0.752093,-0.427426
1582297428987489,1.74384,-0.752045,-0.427213
1582297429001612,1.74411,-0.751541,-0.426941
1582297429024578,1.74384,-0.751224,-0.426202
1582297429047492,1.74368,-0.751072,-0.426106
1582297429061258,1.74959,-0.748835,-0.430785
1582297429092241,1.73471,-0.755766,-0.420379
1582297429107299,1.74302,-0.749246,-0.425916
1582297429121091,1.74443,-0.741192,-0.425283
1582297429145027,1.74175,-0.742345,-0.423361
1582297429167177,1.74103,-0.741677,-0.422782
1582297429181930,1.74102,-0.74157,-0.42286
1582297429204979,1.7411,-0.741424,-0.42279
1582297429226988,1.74129,-0.741341,-0.422924
1582297429241774,1.74113,-0.741189,-0.422831
1582297429265152,1.74112,-0.741082,-0.422909
1582297429286910,1.74063,-0.740413,-0.422785
1582297429301751,1.74048,-0.740369,-0.422615
1582297429324770,1.74047,-0.740262,-0.422692
1582297429347033,1.73979,-0.739739,-0.422413
1582297429362453,1.73963,-0.738862,-0.422696
1582297429385440,1.73969,-0.738672,-0.422682
1582297429407731,1.73968,-0.738565,-0.42276
1582297429422694,1.73955,-0.738459,-0.422611
1582297429446221,1.73931,-0.737897,-0.422865
1582297429467234,1.73908,-0.737274,-0.42314
1582297429483123,1.73921,-0.736656,-0.423664
1582297429506128,1.73935,-0.736039,-0.424187
1582297429534169,1.73922,-0.735932,-0.424039
1582297429543157,1.73926,-0.735461,-0.424632
1582297429565948,1.73999,-0.735131,-0.425247
1582297429587304,1.74078,-0.734718,-0.425769
1582297429602865,1.74144,-0.733916,-0.42675
1582297429625753,1.74217,-0.733342,-0.428344
1582297429655669,1.74308,-0.732681,-0.430579
1582297429670626,1.7442,-0.731457,-0.434476
1582297429693562,1.74353,-0.725959,-0.439337
1582297429715502,1.7389,-0.719886,-0.444866
1582297429730463,1.7536,-0.715865,-0.457965
1582297429753402,1.77303,-0.703556,-0.469026
1582297429775703,1.78371,-0.669284,-0.482962
1582297429804264,1.80528,-0.626439,-0.501023
1582297429813908,1.82805,-0.572809,-0.525164
1582297429836256,1.85035,-0.511183,-0.560137
1582297429857122,1.8797,-0.440205,-0.605641
1582297429873079,1.91533,-0.35731,-0.658359
1582297429896147,1.95254,-0.267271,-0.715922
1582297429917964,1.98543,-0.176383,-0.774351
1582297429932973,2.01509,-0.0854457,-0.832059
1582297429955862,2.03764,0.00882375,-0.887481
1582297429976853,2.05756,0.105847,-0.942093
1582297429993755,2.07364,0.199805,-0.995347
1582297430015705,2.07088,0.287094,-1.04722
1582297430036796,2.06089,0.371782,-1.09535
1582297430053597,2.04586,0.453352,-1.14202
1582297430083515,2.0109,0.5298,-1.19015
1582297430097487,1.95671,0.600187,-1.23782
1582297430113504,1.90271,0.663005,-1.28442
1582297430135379,1.84952,0.718099,-1.3302
1582297430157317,1.79671,0.765393,-1.3754
1582297430173354,1.74094,0.804372,-1.41842
1582297430196224,1.68733,0.832498,-1.45865
1582297430217189,1.64039,0.854637,-1.49472
1582297430233506,1.60465,0.869737,-1.52494
1582297430256184,1.57724,0.87831,-1.55003
1582297430276999,1.55499,0.882474,-1.56906
1582297430294952,1.53791,0.884953,-1.58104
1582297430316029,1.52562,0.886707,-1.58739
1582297430336838,1.51925,0.888323,-1.59044
1582297430353614,1.51375,0.885463,-1.59289
1582297430375747,1.51975,0.89246,-1.58696
1582297430396681,1.51093,0.88618,-1.5917
1582297430413634,1.50074,0.872508,-1.59641
1582297430435830,1.49181,0.858608,-1.59932
1582297430456660,1.49833,0.856205,-1.59265
1582297430473769,1.50234,0.854211,-1.58802
1582297430495413,1.50531,0.852201,-1.58536
1582297430517412,1.50716,0.850003,-1.58379
1582297430533371,1.50853,0.84838,-1.58231
1582297430556254,1.50944,0.847322,-1.58116
1582297430578197,1.51017,0.847125,-1.58017
1582297430593332,1.51041,0.847292,-1.58017
1582297430616091,1.51271,0.847807,-1.57862
1582297430638233,1.51505,0.848891,-1.57689
1582297430652992,1.51696,0.849949,-1.57498
1582297430676153,1.51969,0.851337,-1.57291
1582297430698087,1.52376,0.852544,-1.56994
1582297430713032,1.52895,0.853349,-1.56632
1582297430735865,1.53529,0.854273,-1.56188
1582297430758716,1.5426,0.855077,-1.55739
1582297430772955,1.5488,0.854954,-1.55275
1582297430796017,1.55454,0.853936,-1.54765
1582297430801664,1.5622,0.852532,-1.54157
1582297430823735,1.57064,0.850445,-1.53537
1582297430840514,1.57764,0.846963,-1.52888
1582297430861591,1.58517,0.849605,-1.5218
1582297430883434,1.58864,0.847929,-1.51783
1582297430900337,1.61074,0.848877,-1.50143
1582297430921550,1.6053,0.841491,-1.50456
1582297430946764,1.61924,0.837934,-1.49532
1582297430959175,1.62508,0.841185,-1.49191
1582297430981354,1.62076,0.82849,-1.49621
1582297431004463,1.6375,0.836159,-1.48449
1582297431019076,1.62521,0.826753,-1.49355
1582297431041538,1.6392,0.828266,-1.48416
1582297431063898,1.6353,0.828378,-1.48785
1582297431078907,1.63644,0.819476,-1.49044
1582297431101075,1.64893,0.825971,-1.48269
1582297431124231,1.63852,0.812638,-1.49121
1582297431138921,1.63641,0.808828,-1.49214
1582297431161630,1.6391,0.80538,-1.48965
1582297431183776,1.64212,0.802818,-1.4883
1582297431200527,1.64519,0.800309,-1.48745
1582297431224567,1.64791,0.797721,-1.48678
1582297431243485,1.65009,0.795398,-1.48576
1582297431260371,1.65188,0.793342,-1.48499
1582297431281450,1.65365,0.790961,-1.48381
1582297431304514,1.6553,0.789067,-1.48268
1582297431320215,1.65652,0.787478,-1.48128
1582297431341339,1.65737,0.785906,-1.48042
1582297431364145,1.65855,0.784373,-1.47943
1582297431380055,1.65935,0.783463,-1.47818
1582297431401225,1.66041,0.782753,-1.47691
1582297431423993,1.66143,0.782098,-1.47604
1582297431440267,1.66166,0.782089,-1.47583
1582297431460977,1.66384,0.781879,-1.47557
1582297431483827,1.66627,0.781073,-1.47573
1582297431499792,1.66918,0.779419,-1.47584
1582297431521730,1.67621,0.776786,-1.47585
1582297431543626,1.68931,0.772596,-1.47656
1582297431561560,1.70713,0.766416,-1.48085
1582297431581702,1.72963,0.756824,-1.4916
1582297431603518,1.75225,0.739775,-1.51497
1582297431621645,1.78134,0.71734,-1.54344
1582297431641413,1.81328,0.689133,-1.57541
1582297431664345,1.84868,0.657817,-1.60961
1582297431681242,1.88472,0.621681,-1.6429
1582297431701635,1.91661,0.578551,-1.67502
1582297431724279,1.94889,0.531348,-1.70617
1582297431742401,1.98459,0.482207,-1.7354
1582297431761276,2.02241,0.429107,-1.76127
1582297431784122,2.05264,0.367968,-1.78269
1582297431802071,2.07724,0.302202,-1.80181
1582297431821867,2.11221,0.239737,-1.82027
1582297431843990,2.1563,0.181487,-1.8438
1582297431861760,2.19624,0.123892,-1.86879
1582297431881753,2.23348,0.0659744,-1.89015
1582297431903863,2.26858,0.0147325,-1.90939
1582297431922110,2.30009,-0.0279842,-1.93335
1582297431941556,2.33804,-0.0687529,-1.95645
1582297431963619,2.37964,-0.10993,-1.97312
1582297431981591,2.41479,-0.145841,-1.98933
1582297432002382,2.43519,-0.171961,-2.00697
1582297432023492,2.44271,-0.192796,-2.02248
1582297432041278,2.44695,-0.211368,-2.03368
1582297432061754,2.45036,-0.225588,-2.04354
1582297432084323,2.44173,-0.232882,-2.05173
1582297432101124,2.4378,-0.235786,-2.05844
1582297432121266,2.43923,-0.228582,-2.07198
1582297432145009,2.44624,-0.236718,-2.08559
1582297432161961,2.4483,-0.241053,-2.09617
1582297432182906,2.45777,-0.238491,-2.10448
1582297432204108,2.45938,-0.235328,-2.11211
1582297432221803,2.47486,-0.23176,-2.1214
1582297432242967,2.49632,-0.232878,-2.13106
1582297432264116,2.51246,-0.230879,-2.14166
1582297432281819,2.51645,-0.22965,-2.15229
1582297432302581,2.51174,-0.229038,-2.16338
1582297432331677,2.50497,-0.230147,-2.17556
1582297432342047,2.50306,-0.232391,-2.18722
1582297432362425,2.50044,-0.23622,-2.19753
1582297432384553,2.48616,-0.240925,-2.20477
1582297432400379,2.47108,-0.242505,-2.20502
1582297432422333,2.47086,-0.237298,-2.20293
1582297432444372,2.47748,-0.236986,-2.19863
1582297432461155,2.48098,-0.238492,-2.19232
1582297432485091,2.48183,-0.240669,-2.186
1582297432505045,2.48043,-0.243138,-2.18035
1582297432520996,2.47994,-0.24519,-2.17676
1582297432543404,2.48247,-0.2468,-2.17329
1582297432557909,2.48495,-0.24743,-2.16965
1582297432581301,2.48522,-0.247069,-2.16565
1582297432609803,2.48368,-0.246822,-2.16207
1582297432624770,2.48221,-0.24625,-2.15844
1582297432640678,2.47978,-0.246098,-2.15533
1582297432663615,2.4769,-0.246282,-2.15271
1582297432684793,2.47599,-0.245864,-2.15006
1582297432700519,2.47644,-0.246144,-2.14767
1582297432723731,2.47651,-0.246169,-2.14554
1582297432737417,2.47509,-0.246245,-2.14399
1582297432760447,2.47285,-0.246283,-2.14287
1582297432783335,2.47035,-0.246018,-2.14222
1582297432804379,2.46631,-0.245725,-2.14215
1582297432821192,2.46245,-0.245604,-2.14171
1582297432843135,2.46125,-0.245319,-2.14068
1582297432864217,2.46085,-0.245726,-2.13967
1582297432880168,2.46088,-0.246309,-2.13899
1582297432903007,2.46102,-0.246463,-2.13828
1582297432917933,2.46094,-0.246375,-2.13749
1582297432940916,2.4598,-0.246611,-2.13686
1582297432963813,2.45895,-0.246634,-2.13621
1582297432985177,2.45841,-0.246577,-2.13558
1582297433000716,2.45759,-0.246241,-2.13525
1582297433025651,2.45755,-0.246347,-2.13524
1582297433040657,2.45755,-0.246347,-2.13524
1582297433060552,2.45887,-0.248094,-2.13721
1582297433081537,2.45701,-0.25079,-2.1367
1582297433097600,2.45923,-0.248921,-2.13722
1582297433120455,2.47136,-0.233047,-2.13965
1582297433144614,2.47072,-0.229163,-2.13907
1582297433164274,2.45741,-0.241402,-2.1361
1582297433180300,2.44532,-0.257182,-2.13388
1582297433201445,2.44842,-0.257129,-2.13541
1582297433218129,2.44445,-0.258267,-2.1352
1582297433240516,2.44406,-0.260348,-2.13364
1582297433261282,2.44547,-0.260163,-2.13315
1582297433278131,2.44666,-0.260104,-2.13303
1582297433298956,2.4467,-0.259998,-2.13305
1582297433322057,2.44568,-0.259661,-2.13276
1582297433337235,2.44757,-0.248951,-2.13057
1582297433359800,2.43824,-0.260154,-2.12781
1582297433381845,2.44471,-0.246982,-2.12876
1582297433397166,2.44301,-0.24876,-2.12821
1582297433419802,2.44367,-0.247556,-2.12861
1582297433441588,2.44291,-0.247438,-2.12792
1582297433457553,2.44241,-0.247469,-2.12756
1582297433479632,2.44267,-0.247565,-2.12683
1582297433502439,2.44325,-0.247694,-2.1262
1582297433517644,2.44325,-0.247694,-2.1262
1582297433539475,2.44317,-0.24783,-2.12624
1582297433562410,2.44206,-0.247824,-2.12626
1582297433577174,2.44101,-0.247358,-2.12661
1582297433599373,2.44028,-0.24685,-2.12714
1582297433622269,2.43863,-0.246539,-2.12787
1582297433637230,2.43678,-0.246418,-2.12867
1582297433658955,2.43518,-0.246254,-2.12912
1582297433682037,2.43443,-0.245992,-2.12925
1582297433698295,2.43396,-0.245842,-2.12898
1582297433719992,2.43406,-0.245768,-2.12863
1582297433741789,2.4342,-0.245651,-2.12798
1582297433758684,2.43422,-0.245513,-2.12742
1582297433779768,2.43405,-0.245563,-2.12692
1582297433795590,2.43405,-0.245563,-2.12692
1582297433818540,2.43401,-0.245668,-2.12691
1582297433839668,2.43453,-0.245575,-2.12664
1582297433855492,2.43445,-0.245711,-2.12667
1582297433878368,2.43369,-0.245823,-2.12681
1582297433899366,2.43309,-0.245865,-2.12712
1582297433923516,2.43309,-0.245865,-2.12712
1582297433946189,2.4334,-0.245898,-2.12722
1582297433967184,2.4334,-0.245898,-2.12722
1582297433983083,2.43275,-0.246158,-2.12759
1582297434006086,2.43244,-0.246171,-2.1283
1582297434027029,2.43227,-0.246119,-2.12876
1582297434043389,2.43227,-0.246119,-2.12876
1582297434066283,2.43235,-0.246171,-2.12873
1582297434086808,2.43235,-0.246171,-2.12873
1582297434103772,2.43233,-0.246122,-2.12928
1582297434125700,2.43295,-0.246188,-2.12948
1582297434146833,2.43295,-0.246188,-2.12948
1582297434163604,2.43326,-0.246146,-2.12965
1582297434185897,2.43342,-0.246075,-2.12981
1582297434207490,2.43342,-0.246075,-2.12981
1582297434223765,2.4335,-0.246127,-2.12978
1582297434245581,2.43346,-0.246232,-2.12976
1582297434266328,2.43305,-0.246274,-2.13002
1582297434283284,2.43313,-0.246326,-2.12998
1582297434306218,2.43313,-0.246326,-2.12998
1582297434327209,2.43269,-0.246284,-2.13021
1582297434343237,2.43281,-0.246231,-2.1302
1582297434366058,2.43269,-0.246284,-2.13021
1582297434388097,2.43221,-0.246336,-2.13019
1582297434403014,2.43229,-0.246388,-2.13016
1582297434425901,2.43225,-0.246493,-2.13014
1582297434448023,2.43154,-0.246314,-2.13029
1582297434469924,2.43122,-0.246207,-2.13027
1582297434485917,2.43118,-0.246312,-2.13025
1582297434508678,2.43118,-0.246312,-2.13025
1582297434523635,2.43114,-0.246343,-2.13031
1582297434553557,2.43055,-0.246447,-2.1303
1582297434568523,2.43011,-0.246394,-2.13029
1582297434582484,2.42975,-0.246217,-2.13049
1582297434613402,2.42975,-0.246217,-2.13049
1582297434628517,2.42971,-0.246248,-2.13054
1582297434642425,2.42971,-0.246248,-2.13054
1582297434666256,2.42971,-0.246248,-2.13054
1582297434688202,2.42971,-0.246248,-2.13054
1582297434703156,2.42971,-0.246248,-2.13054
1582297434726100,2.4296,-0.246214,-2.13039
1582297434748037,2.42948,-0.246267,-2.13041
1582297434763024,2.42884,-0.246141,-2.13053
1582297434785990,2.42825,-0.246171,-2.1306
1582297434808214,2.42821,-0.246276,-2.13058
1582297434822903,2.42785,-0.2461,-2.13078
1582297434845780,2.42766,-0.246014,-2.13066
1582297434868717,2.42766,-0.246014,-2.13066
1582297434890084,2.42762,-0.246119,-2.13064
1582297434905619,2.42762,-0.246119,-2.13064
1582297434928560,2.42762,-0.246119,-2.13064
1582297434949712,2.42754,-0.246067,-2.13068
1582297434965733,2.42754,-0.246067,-2.13068
1582297434988455,2.42754,-0.246067,-2.13068
1582297435009512,2.42754,-0.246067,-2.13068
1582297435025304,2.42754,-0.246067,-2.13068
1582297435048243,2.42746,-0.246015,-2.13071
1582297435069319,2.42746,-0.246015,-2.13071
1582297435086137,2.42686,-0.246046,-2.13078
1582297435109089,2.42667,-0.246148,-2.13067
1582297435130016,2.42415,-0.253418,-2.13124
1582297435146022,2.42311,-0.263141,-2.13153
1582297435167912,2.41605,-0.278239,-2.13094
1582297435189974,2.41781,-0.274004,-2.13137
1582297435205815,2.41044,-0.288586,-2.12992
1582297435228751,2.41769,-0.275016,-2.13166
1582297435249905,2.41336,-0.280346,-2.13109
1582297435265651,2.41452,-0.281478,-2.13084
1582297435288648,2.41784,-0.271394,-2.132
1582297435309593,2.41271,-0.284919,-2.13051
1582297435325756,2.41443,-0.280712,-2.131
1582297435348545,2.40731,-0.293333,-2.12935
1582297435370556,2.41342,-0.283476,-2.13061
1582297435386336,2.41058,-0.28417,-2.13045
1582297435408272,2.41435,-0.277617,-2.13082
1582297435431208,2.41483,-0.277164,-2.13244
1582297435446169,2.41385,-0.27672,-2.13218
1582297435468111,2.41393,-0.276509,-2.13222
1582297435491097,2.41401,-0.276372,-2.13218
1582297435505014,2.41417,-0.276113,-2.13234
1582297435528066,2.4142,-0.276008,-2.13236
1582297435550941,2.41424,-0.275713,-2.13237
1582297435565115,2.41428,-0.275608,-2.13238
1582297435588786,2.41428,-0.275419,-2.13238
1582297435610728,2.41436,-0.275282,-2.13234
1582297435624704,2.41436,-0.275019,-2.1324
1582297435648625,2.41444,-0.274882,-2.13236
1582297435670628,2.41444,-0.274619,-2.13243
1582297435685542,2.41452,-0.274482,-2.13239
1582297435708477,2.41448,-0.274325,-2.13244
1582297435730572,2.41436,-0.274101,-2.13229
1582297435745368,2.4144,-0.273995,-2.1323
1582297435768367,2.4144,-0.273807,-2.1323
1582297435791263,2.41436,-0.27365,-2.13235
1582297435805272,2.41444,-0.273513,-2.13231
1582297435813075,2.41444,-0.27325,-2.13237
1582297435834508,2.41444,-0.273062,-2.13237
1582297435856211,2.41452,-0.272925,-2.13233
1582297435873070,2.41448,-0.272767,-2.13238
1582297435894379,2.41456,-0.27263,-2.13234
1582297435916195,2.41452,-0.272473,-2.13239
1582297435934420,2.41452,-0.272285,-2.13239
1582297435954037,2.41456,-0.272179,-2.1324
1582297435975816,2.41427,-0.271343,-2.13269
1582297435992755,2.41376,-0.270525,-2.13284
1582297436013837,2.4138,-0.270419,-2.13286
1582297436036590,2.4138,-0.270231,-2.13286
1582297436052679,2.41384,-0.270125,-2.13287
1582297436073855,2.41384,-0.269937,-2.13287
1582297436096577,2.41388,-0.269831,-2.13288
1582297436114386,2.41388,-0.269643,-2.13288
1582297436133514,2.41384,-0.269486,-2.13293
1582297436156464,2.41392,-0.269349,-2.13289
1582297436172227,2.41388,-0.269192,-2.13294
1582297436194226,2.41396,-0.269055,-2.1329
1582297436224099,2.41392,-0.268898,-2.13295
1582297436233062,2.41403,-0.268655,-2.13293
1582297436254204,2.41399,-0.268498,-2.13298
1582297436276008,2.41435,-0.267959,-2.13292
1582297436293899,2.41435,-0.267771,-2.13291
1582297436314049,2.41431,-0.267614,-2.13296
1582297436336794,2.41435,-0.267582,-2.13291
1582297436354558,2.41439,-0.267477,-2.13292
1582297436373735,2.41451,-0.267234,-2.1329
1582297436396685,2.41447,-0.267077,-2.13295
1582297436414577,2.41439,-0.267026,-2.13299
1582297436433917,2.41447,-0.266889,-2.13295
1582297436456667,2.41443,-0.266732,-2.133
1582297436474542,2.41404,-0.266197,-2.133
1582297436493806,2.414,-0.26604,-2.13305
1582297436516499,2.41404,-0.265935,-2.13306
1582297436534258,2.41356,-0.265349,-2.1331
1582297436554556,2.4136,-0.265243,-2.13311
1582297436576280,2.41364,-0.265138,-2.13313
1582297436594099,2.41349,-0.26502,-2.13296
1582297436614225,2.41345,-0.264863,-2.13301
1582297436636565,2.41294,-0.264308,-2.1331
1582297436653940,2.41294,-0.26412,-2.1331
1582297436674108,2.41294,-0.26412,-2.1331
1582297436696300,2.4129,-0.263963,-2.13315
1582297436713777,2.41333,-0.263565,-2.13322
1582297436733857,2.41317,-0.263373,-2.13312
1582297436756773,2.41321,-0.263268,-2.13314
1582297436774882,2.41317,-0.263184,-2.13311
1582297436793697,2.41313,-0.263028,-2.13317
1582297436816507,2.41317,-0.262922,-2.13318
1582297436834459,2.41317,-0.262734,-2.13318
1582297436853599,2.41321,-0.262629,-2.1332
1582297436876553,2.41318,-0.262546,-2.13317
1582297436894473,2.41322,-0.26244,-2.13319
1582297436915246,2.41318,-0.262283,-2.13324
1582297436936348,2.41302,-0.262165,-2.13307
1582297436954141,2.41306,-0.26206,-2.13309
1582297436975181,2.4131,-0.261955,-2.1331
1582297436996069,2.41306,-0.261872,-2.13308
1582297437014177,2.41302,-0.261715,-2.13313
1582297437035180,2.41302,-0.261715,-2.13313
1582297437056068,2.41298,-0.261558,-2.13319
1582297437073811,2.41302,-0.261526,-2.13313
1582297437095124,2.41298,-0.26137,-2.13318
1582297437115703,2.41291,-0.261229,-2.13305
1582297437134444,2.41287,-0.261146,-2.13303
1582297437155602,2.41291,-0.261041,-2.13304
1582297437176870,2.41287,-0.260884,-2.1331
1582297437194088,2.41295,-0.260747,-2.13306
1582297437216483,2.41287,-0.260696,-2.13309
1582297437236740,2.41291,-0.26059,-2.13311
1582297437254341,2.41287,-0.260507,-2.13309
1582297437276541,2.41291,-0.260402,-2.1331
1582297437296414,2.41272,-0.260316,-2.13299
1582297437314173,2.41268,-0.260159,-2.13304
1582297437336506,2.41276,-0.260022,-2.133
1582297437356547,2.41276,-0.260022,-2.133
1582297437374548,2.41272,-0.259865,-2.13305
1582297437396948,2.41276,-0.259834,-2.133
1582297437416175,2.41272,-0.259677,-2.13305
1582297437433038,2.41264,-0.259625,-2.13308
1582297437456161,2.41268,-0.25952,-2.1331
1582297437477258,2.41296,-0.259004,-2.133
1582297437493695,2.41292,-0.258847,-2.13305
1582297437515646,2.41292,-0.258847,-2.13305
1582297437537082,2.413,-0.25871,-2.13301
1582297437553598,2.41292,-0.258659,-2.13305
1582297437575470,2.41284,-0.258519,-2.13291
1582297437590430,2.413,-0.258245,-2.13283
1582297437613438,2.41296,-0.258088,-2.13289
1582297437635485,2.41253,-0.257848,-2.13288
1582297437650490,2.41249,-0.257691,-2.13293
1582297437673417,2.41246,-0.257796,-2.13291
1582297437696154,2.41171,-0.257465,-2.13312
1582297437710112,2.41029,-0.2571,-2.13319
1582297437733314,2.40805,-0.256878,-2.13337
1582297437756055,2.40444,-0.257334,-2.1332
1582297437777379,2.39979,-0.258009,-2.13269
1582297437792890,2.39429,-0.258376,-2.13194
1582297437815831,2.38852,-0.258118,-2.13176
1582297437836967,2.38265,-0.25719,-2.13151
1582297437853726,2.37836,-0.255879,-2.13094
1582297437875845,2.3745,-0.253669,-2.12995
1582297437896755,2.37078,-0.250611,-2.12848
1582297437913770,2.36554,-0.24683,-2.12641
1582297437935570,2.35777,-0.242979,-2.12411
1582297437956657,2.35061,-0.239788,-2.12162
1582297437972615,2.34643,-0.236627,-2.1186
1582297437995412,2.34493,-0.233504,-2.11527
1582297438017452,2.34371,-0.230744,-2.11082
1582297438032311,2.34116,-0.228444,-2.10516
1582297438056184,2.33618,-0.226569,-2.09877
1582297438077325,2.32627,-0.224619,-2.09146
1582297438092093,2.31356,-0.22276,-2.08392
1582297438116220,2.30615,-0.222107,-2.0768
1582297438137177,2.30469,-0.222421,-2.06968
1582297438160905,2.30638,-0.223952,-2.06263
1582297438175867,2.30676,-0.225999,-2.05585
1582297438198003,2.30671,-0.227875,-2.04967
1582297438212986,2.30557,-0.229637,-2.04404
1582297438235710,2.30574,-0.231003,-2.03878
1582297438258646,2.30524,-0.232007,-2.03462
1582297438273616,2.30514,-0.232069,-2.03076
1582297438295544,2.30482,-0.231538,-2.02694
1582297438318546,2.30395,-0.230255,-2.02347
1582297438332449,2.30335,-0.228793,-2.02039
1582297438355568,2.30275,-0.227487,-2.01785
1582297438378387,2.30272,-0.226125,-2.01554
1582297438392519,2.30351,-0.224879,-2.01374
1582297438416222,2.30437,-0.224528,-2.01245
1582297438438382,2.3051,-0.224586,-2.01196
1582297438452332,2.30625,-0.224726,-2.01231
1582297438476069,2.30755,-0.224557,-2.01396
1582297438498173,2.30812,-0.224119,-2.01647
1582297438512968,2.30721,-0.223687,-2.02019
1582297438535949,2.30574,-0.223254,-2.02483
1582297438558332,2.30454,-0.223025,-2.02984
1582297438572864,2.30531,-0.223228,-2.03509
1582297438595972,2.30793,-0.224019,-2.04068
1582297438618678,2.3107,-0.225527,-2.04628
1582297438632706,2.3125,-0.227945,-2.05201
1582297438655838,2.31393,-0.23034,-2.05748
1582297438678527,2.31574,-0.23272,-2.06274
1582297438699652,2.31798,-0.235345,-2.06801
1582297438715935,2.32127,-0.238725,-2.07353
1582297438738541,2.32328,-0.242212,-2.0791
1582297438759337,2.32315,-0.245572,-2.08423
1582297438775312,2.32479,-0.248632,-2.08969
1582297438799264,2.32613,-0.25098,-2.09531
1582297438819677,2.32683,-0.252988,-2.10059
1582297438836144,2.32768,-0.254261,-2.10627
1582297438858038,2.32945,-0.255831,-2.11222
1582297438879406,2.33361,-0.258023,-2.11789
1582297438895981,2.33806,-0.260783,-2.12357
1582297438918016,2.3421,-0.263529,-2.12944
1582297438940145,2.34564,-0.266735,-2.13554
1582297438954934,2.35158,-0.270119,-2.14154
1582297438978723,2.36046,-0.273446,-2.1472
1582297438999855,2.36782,-0.276643,-2.15277
1582297439015620,2.37323,-0.279717,-2.15775
1582297439038606,2.37663,-0.282127,-2.16288
1582297439059651,2.37956,-0.283856,-2.16791
1582297439075456,2.38578,-0.285165,-2.17207
1582297439098404,2.39165,-0.286938,-2.17547
1582297439119510,2.39753,-0.288858,-2.17795
1582297439135561,2.40167,-0.291062,-2.17944
1582297439158241,2.40504,-0.293377,-2.18074
1582297439181182,2.40956,-0.295437,-2.18198
1582297439196141,2.41491,-0.29744,-2.1825
1582297439218076,2.41945,-0.299017,-2.18199
1582297439241027,2.42271,-0.300927,-2.18067
1582297439254977,2.42301,-0.302244,-2.17807
1582297439277964,2.42481,-0.306001,-2.17438
1582297439300917,2.42191,-0.305779,-2.17017
1582297439314815,2.42493,-0.307127,-2.16565
1582297439337951,2.41743,-0.30792,-2.15951
1582297439360700,2.4136,-0.308312,-2.15239
1582297439381834,2.40967,-0.308704,-2.14482
1582297439398604,2.40606,-0.308411,-2.13775
1582297439420598,2.40069,-0.307806,-2.1306
1582297439441522,2.39471,-0.305614,-2.12386
1582297439458431,2.39069,-0.304253,-2.1171
1582297439480546,2.38627,-0.302891,-2.11028
1582297439502314,2.3805,-0.301681,-2.10375
1582297439518280,2.37177,-0.300085,-2.09775
1582297439541213,2.36367,-0.29808,-2.09269
1582297439562288,2.35823,-0.295584,-2.08787
1582297439578287,2.3544,-0.292907,-2.08366
1582297439601119,2.35146,-0.290242,-2.08099
1582297439622165,2.34918,-0.28781,-2.07847
1582297439638011,2.34814,-0.286011,-2.0765
1582297439660890,2.3473,-0.28482,-2.07434
1582297439682231,2.3463,-0.283902,-2.07225
1582297439698791,2.34554,-0.283282,-2.06991
1582297439721002,2.34517,-0.282516,-2.06795
1582297439741678,2.34324,-0.281575,-2.06646
1582297439758630,2.34092,-0.280466,-2.06498
1582297439780629,2.33772,-0.279112,-2.06406
1582297439801779,2.3336,-0.277759,-2.06382
1582297439818478,2.33014,-0.276718,-2.06364
1582297439840425,2.32844,-0.276218,-2.0631
1582297439861355,2.32994,-0.276125,-2.06242
1582297439878550,2.33319,-0.276191,-2.06095
1582297439900454,2.3367,-0.276162,-2.05901
1582297439922389,2.33889,-0.276502,-2.05698
1582297439938153,2.34139,-0.276887,-2.05417
1582297439961089,2.34348,-0.276988,-2.05089
1582297439982279,2.34508,-0.276495,-2.04829
1582297439998055,2.3461,-0.275987,-2.04632
1582297440021209,2.34669,-0.275381,-2.04472
1582297440041908,2.34646,-0.275405,-2.04397
1582297440058103,2.34619,-0.275516,-2.04383
1582297440081070,2.34419,-0.27586,-2.04415
1582297440103706,2.34295,-0.275837,-2.0452
1582297440118676,2.34149,-0.275392,-2.04644
1582297440140608,2.33948,-0.274812,-2.04809
1582297440163543,2.33756,-0.274101,-2.04971
1582297440178588,2.33713,-0.273512,-2.05152
1582297440200578,2.33777,-0.273217,-2.05321
1582297440223383,2.33917,-0.273427,-2.05461
1582297440237773,2.34075,-0.273672,-2.05557
1582297440260477,2.34262,-0.273854,-2.05637
1582297440283229,2.34516,-0.273881,-2.05706
1582297440297606,2.34802,-0.274281,-2.05754
1582297440321125,2.3507,-0.274934,-2.05801
1582297440343268,2.35288,-0.275711,-2.05821
1582297440358025,2.35458,-0.276403,-2.05877
1582297440380995,2.35675,-0.277127,-2.05929
1582297440403039,2.35904,-0.277802,-2.05978
1582297440418104,2.3602,-0.278477,-2.06037
1582297440440804,2.36073,-0.27894,-2.06115
1582297440462758,2.36154,-0.27936,-2.06201
1582297440477713,2.36288,-0.279518,-2.06285
1582297440500649,2.3639,-0.279545,-2.06341
1582297440523586,2.36466,-0.279442,-2.06414
1582297440537758,2.365,-0.279345,-2.06481
1582297440560533,2.36459,-0.27914,-2.06537
1582297440583471,2.36455,-0.278929,-2.06573
1582297440604591,2.3646,-0.278897,-2.06568
1582297440620739,2.3654,-0.279004,-2.06605
1582297440643461,2.36628,-0.279235,-2.06632
1582297440664207,2.36662,-0.279381,-2.06667
1582297440681163,2.36676,-0.279506,-2.06684
1582297440704108,2.36698,-0.279631,-2.06727
1582297440724171,2.36777,-0.279927,-2.06764
1582297440741015,2.36841,-0.280115,-2.06808
1582297440762970,2.3684,-0.280338,-2.06857
1582297440784931,2.36847,-0.280392,-2.06853
1582297440801124,2.36925,-0.280395,-2.06865
1582297440822827,2.36916,-0.280531,-2.06868
1582297440828983,2.36966,-0.280648,-2.06865
1582297440851713,2.36966,-0.280648,-2.06865
1582297440866737,2.36966,-0.280648,-2.06865
1582297440888809,2.36966,-0.280648,-2.06865
1582297440911740,2.36966,-0.280648,-2.06865
1582297440926574,2.36959,-0.280595,-2.06869
1582297440948512,2.36959,-0.280595,-2.06869
1582297440971816,2.36959,-0.280595,-2.06869
1582297440986554,2.36975,-0.280773,-2.06855
1582297441008284,2.37022,-0.280717,-2.06832
1582297441034222,2.37081,-0.280699,-2.06826
1582297441046586,2.37102,-0.280585,-2.06814
1582297441069262,2.37119,-0.280558,-2.06776
1582297441094193,2.37119,-0.280558,-2.06776
1582297441106080,2.37063,-0.280489,-2.06808
1582297441129166,2.37094,-0.280531,-2.06817
1582297441151115,2.37078,-0.280596,-2.068
1582297441166011,2.37078,-0.280596,-2.068
1582297441189018,2.37078,-0.280596,-2.068
1582297441206755,2.37071,-0.280543,-2.06804
1582297441226703,2.37106,-0.280553,-2.06809
1582297441248877,2.37106,-0.280553,-2.06809
1582297441266603,2.37106,-0.280553,-2.06809
1582297441286755,2.37087,-0.280461,-2.06797
1582297441308618,2.37087,-0.280461,-2.06797
1582297441327004,2.37083,-0.280564,-2.06795
1582297441346508,2.37078,-0.280596,-2.068
1582297441369379,2.37078,-0.280596,-2.068
1582297441386938,2.37067,-0.280646,-2.06803
1582297441406230,2.37067,-0.280646,-2.06803
1582297441429161,2.37067,-0.280646,-2.06803
1582297441446571,2.37055,-0.280608,-2.06787
1582297441466118,2.37055,-0.280608,-2.06787
1582297441491992,2.37047,-0.280554,-2.06791
1582297441506957,2.37083,-0.280564,-2.06795
1582297441526344,2.3709,-0.280618,-2.06792
1582297441549042,2.3709,-0.280618,-2.06792
1582297441567072,2.37087,-0.280722,-2.0679
1582297441586786,2.37074,-0.280683,-2.06774
1582297441608921,2.37074,-0.280683,-2.06774
1582297441626638,2.37067,-0.280629,-2.06778
1582297441647639,2.37067,-0.280629,-2.06778
1582297441668713,2.37063,-0.280733,-2.06777
1582297441686641,2.37063,-0.280733,-2.06777
1582297441707548,2.37063,-0.280733,-2.06777
1582297441736554,2.37063,-0.280733,-2.06777
1582297441746381,2.37067,-0.280629,-2.06778
1582297441769251,2.37063,-0.280733,-2.06777
1582297441789276,2.37063,-0.280733,-2.06777
1582297441806652,2.37056,-0.280679,-2.0678
1582297441827274,2.37063,-0.280733,-2.06777
1582297441849265,2.37094,-0.280776,-2.06786
1582297441866182,2.37094,-0.280776,-2.06786
1582297441887997,2.37101,-0.280829,-2.06782
1582297441909076,2.37101,-0.280829,-2.06782
1582297441926843,2.37144,-0.280894,-2.06783
1582297441947840,2.37144,-0.280894,-2.06783
1582297441968944,2.37164,-0.280969,-2.0677
1582297441986669,2.37164,-0.280969,-2.0677
1582297442016590,2.37164,-0.280969,-2.0677
1582297442031933,2.37157,-0.280915,-2.06774
1582297442046510,2.37157,-0.280915,-2.06774
1582297442069446,2.37164,-0.280969,-2.0677
1582297442089394,2.37157,-0.280915,-2.06774
1582297442107012,2.37157,-0.280915,-2.06774
1582297442129287,2.37153,-0.281019,-2.06773
1582297442148455,2.37153,-0.281019,-2.06773
1582297442166188,2.37153,-0.281019,-2.06773
1582297442189137,2.37153,-0.281019,-2.06773
1582297442209098,2.37157,-0.280915,-2.06774
1582297442227030,2.37179,-0.281077,-2.06763
1582297442249531,2.3721,-0.281381,-2.06765
1582297442269106,2.37198,-0.28143,-2.06768
1582297442286873,2.37102,-0.281905,-2.06787
1582297442308805,2.37042,-0.282113,-2.06793
1582297442328953,2.36985,-0.282233,-2.06825
1582297442346905,2.3692,-0.282246,-2.06892
1582297442368953,2.36944,-0.282235,-2.06905
1582297442388785,2.36951,-0.282289,-2.06901
1582297442406609,2.37033,-0.282465,-2.06932
1582297442429553,2.37033,-0.282465,-2.06932
1582297442449482,2.3704,-0.282519,-2.06928
1582297442465586,2.37033,-0.282465,-2.06932
1582297442488394,2.3702,-0.282427,-2.06916
1582297442509489,2.37013,-0.282373,-2.0692
1582297442526226,2.37004,-0.282509,-2.06924
1582297442548170,2.36984,-0.282623,-2.06936
1582297442571103,2.36932,-0.282713,-2.06963
1582297442586066,2.36932,-0.282713,-2.06963
1582297442608063,2.36937,-0.282436,-2.06989
1582297442629994,2.36944,-0.28249,-2.06985
1582297442645905,2.36944,-0.28249,-2.06985
1582297442668047,2.36964,-0.282304,-2.0698
1582297442689797,2.36988,-0.282293,-2.06993
1582297442713090,2.36945,-0.282229,-2.06992
1582297442727843,2.36945,-0.282229,-2.06992
1582297442749825,2.36937,-0.282175,-2.06996
1582297442765592,2.36937,-0.282175,-2.06996
1582297442788596,2.36905,-0.282323,-2.06986
1582297442809713,2.36905,-0.282323,-2.06986
1582297442825691,2.36909,-0.282219,-2.06988
1582297442848658,2.36909,-0.282219,-2.06988
1582297442869524,2.36909,-0.282219,-2.06988
1582297442885463,2.36949,-0.282197,-2.06987
1582297442908381,2.36949,-0.282197,-2.06987
1582297442931172,2.36949,-0.282197,-2.06987
1582297442946103,2.36945,-0.282229,-2.06992
1582297442968066,2.36945,-0.282229,-2.06992
1582297442991045,2.36945,-0.282229,-2.06992
1582297443005942,2.36945,-0.282229,-2.06992
1582297443027929,2.36945,-0.282229,-2.06992
1582297443050864,2.36952,-0.282283,-2.06989
1582297443064788,2.36941,-0.282333,-2.06991
1582297443088719,2.36941,-0.282333,-2.06991
1582297443110726,2.36898,-0.282269,-2.0699
1582297443124652,2.36898,-0.282269,-2.0699
1582297443155540,2.36878,-0.282177,-2.06978
1582297443170516,2.36878,-0.282177,-2.06978
1582297443185485,2.3689,-0.282215,-2.06994
1582297443208405,2.3689,-0.282215,-2.06994
1582297443230384,2.36878,-0.282177,-2.06978
1582297443245300,2.36878,-0.282177,-2.06978
1582297443268255,2.3689,-0.282215,-2.06994
1582297443291177,2.3689,-0.282215,-2.06994
1582297443305361,2.3689,-0.282215,-2.06994
1582297443328326,2.3689,-0.282215,-2.06994
1582297443351019,2.36815,-0.282299,-2.06983
1582297443364988,2.36761,-0.282285,-2.06985
1582297443388032,2.36745,-0.282107,-2.06999
1582297443410911,2.36721,-0.282064,-2.07017
1582297443433152,2.36721,-0.282064,-2.07017
1582297443447953,2.36721,-0.282064,-2.07017
1582297443470703,2.36728,-0.282118,-2.07013
1582297443491711,2.36728,-0.282118,-2.07013
1582297443508603,2.3669,-0.282039,-2.07032
1582297443530543,2.3669,-0.282039,-2.07032
1582297443552487,2.3669,-0.282039,-2.07032
1582297443568499,2.36639,-0.281851,-2.07041
1582297443590609,2.36608,-0.281826,-2.07056
1582297443611757,2.36619,-0.281776,-2.07054
1582297443628341,2.36619,-0.281776,-2.07054
1582297443651215,2.36616,-0.28188,-2.07053
1582297443679343,2.36613,-0.281794,-2.07051
1582297443696102,2.36569,-0.281659,-2.07057
1582297443711060,2.36569,-0.281659,-2.07057
1582297443732187,2.36569,-0.281659,-2.07057
1582297443748201,2.36569,-0.281659,-2.07057
1582297443771174,2.36569,-0.281659,-2.07057
1582297443792297,2.36569,-0.281659,-2.07057
1582297443807855,2.36635,-0.281711,-2.07071
1582297443830739,2.36635,-0.281711,-2.07071
1582297443852159,2.36635,-0.281711,-2.07071
1582297443868633,2.36635,-0.281711,-2.07071
1582297443890572,2.36635,-0.281711,-2.07071
1582297443913514,2.36635,-0.281711,-2.07071
1582297443928489,2.36635,-0.281711,-2.07071
1582297443950768,2.36635,-0.281711,-2.07071
1582297443973363,2.36635,-0.281711,-2.07071
1582297443988512,2.36635,-0.281711,-2.07071
1582297444010449,2.36639,-0.281608,-2.07073
1582297444041176,2.36703,-0.281556,-2.07061
1582297444047329,2.36703,-0.281556,-2.07061
1582297444071145,2.36714,-0.281506,-2.07059
1582297444093032,2.36706,-0.281642,-2.07062
1582297444107999,2.36757,-0.28183,-2.07053
1582297444137150,2.36757,-0.28183,-2.07053
1582297444153039,2.36757,-0.28183,-2.07053
1582297444175875,2.36757,-0.28183,-2.07053
1582297444190828,2.36734,-0.281581,-2.07046
1582297444213711,2.36753,-0.281673,-2.07058
1582297444235804,2.36753,-0.281673,-2.07058
1582297444250617,2.36789,-0.281666,-2.07038
1582297444273612,2.36782,-0.281612,-2.07042
1582297444287516,2.36782,-0.281612,-2.07042
1582297444311635,2.36809,-0.281741,-2.07025
1582297444333458,2.36789,-0.281648,-2.07014
1582297444347413,2.36785,-0.281752,-2.07012
1582297444370480,2.36785,-0.281752,-2.07012
1582297444393275,2.36809,-0.281741,-2.07025
1582297444414242,2.36809,-0.281741,-2.07025
1582297444431127,2.36809,-0.281741,-2.07025
1582297444453310,2.36809,-0.281741,-2.07025
1582297444474845,2.36809,-0.281741,-2.07025
1582297444490966,2.36809,-0.281741,-2.07025
1582297444512974,2.36809,-0.281741,-2.07025
1582297444542198,2.36831,-0.281902,-2.07014
1582297444551009,2.36843,-0.28194,-2.0703
1582297444573480,2.36843,-0.28194,-2.0703
1582297444594757,2.36874,-0.281965,-2.07015
1582297444610652,2.36917,-0.28229,-2.07008
1582297444633584,2.36924,-0.282343,-2.07005
1582297444654734,2.36917,-0.28229,-2.07008
1582297444670757,2.36917,-0.28229,-2.07008
1582297444693440,2.36913,-0.282393,-2.07007
1582297444714591,2.36913,-0.282393,-2.07007
1582297444730774,2.3692,-0.282447,-2.07003
1582297444753568,2.3692,-0.282447,-2.07003
1582297444774213,2.36924,-0.282343,-2.07005
1582297444791169,2.36924,-0.282343,-2.07005
1582297444813258,2.36944,-0.282436,-2.07016
1582297444836088,2.3692,-0.282447,-2.07003
1582297444851051,2.36915,-0.282479,-2.07008
1582297444872953,2.36944,-0.282436,-2.07016
1582297444895885,2.37004,-0.28271,-2.07035
1582297444909847,2.37034,-0.282941,-2.07044
1582297444932981,2.37026,-0.282888,-2.07048
1582297444955726,2.37034,-0.282941,-2.07044
1582297444969881,2.37046,-0.28298,-2.0706
1582297444993629,2.37046,-0.28298,-2.0706
1582297445015574,2.37046,-0.28298,-2.0706
1582297445030532,2.37046,-0.28298,-2.0706
1582297445053723,2.37014,-0.282866,-2.07057
1582297445075462,2.37014,-0.282866,-2.07057
1582297445090370,2.37026,-0.282905,-2.07072
1582297445113372,2.37026,-0.282905,-2.07072
1582297445135804,2.37014,-0.282866,-2.07057
1582297445150451,2.36979,-0.282873,-2.07077
1582297445173324,2.36936,-0.282827,-2.071
1582297445196081,2.369,-0.282817,-2.07096
1582297445210201,2.369,-0.282817,-2.07096
1582297445233046,2.36864,-0.282825,-2.07116
1582297445255938,2.36868,-0.282721,-2.07117
1582297445269891,2.36864,-0.282825,-2.07116
1582297445292936,2.36864,-0.282825,-2.07116
1582297445315805,2.3683,-0.282625,-2.07112
1582297445345138,2.36834,-0.282522,-2.07113
1582297445353661,2.36834,-0.282522,-2.07113
1582297445375609,2.3683,-0.282625,-2.07112
1582297445396940,2.3683,-0.282625,-2.07112
1582297445413499,2.3683,-0.282625,-2.07112
1582297445435529,2.3683,-0.282625,-2.07112
1582297445457390,2.3683,-0.282625,-2.07112
1582297445473338,2.3683,-0.282625,-2.07112
1582297445495739,2.3683,-0.282625,-2.07112
1582297445517438,2.3683,-0.282625,-2.07112
1582297445533198,2.36792,-0.28253,-2.07106
1582297445556125,2.36792,-0.28253,-2.07106
1582297445577210,2.36792,-0.28253,-2.07106
1582297445593032,2.36796,-0.282426,-2.07107
1582297445616026,2.36796,-0.282426,-2.07107
1582297445637102,2.36796,-0.282426,-2.07107
1582297445652996,2.36771,-0.282383,-2.07125
1582297445682996,2.36759,-0.282118,-2.07165
1582297445696787,2.36752,-0.282065,-2.07169
1582297445713699,2.36752,-0.282065,-2.07169
1582297445735837,2.36685,-0.282013,-2.07155
1582297445756710,2.36632,-0.281739,-2.07164
1582297445773687,2.36597,-0.281558,-2.07184
1582297445795485,2.36546,-0.28137,-2.07194
1582297445818645,2.36485,-0.281043,-2.07206
1582297445833432,2.36438,-0.28084,-2.07236
1582297445855327,2.36383,-0.280757,-2.07244
1582297445861496,2.36383,-0.280757,-2.07244
1582297445884295,2.36383,-0.280757,-2.07244
1582297445901441,2.36384,-0.280567,-2.07245
1582297445929120,2.36363,-0.280665,-2.07232
1582297445944084,2.36368,-0.280632,-2.07227
1582297445959237,2.36309,-0.280652,-2.07234
1582297445981039,2.36263,-0.280693,-2.07232
1582297446004118,2.36263,-0.280693,-2.07232
1582297446019091,2.36263,-0.280693,-2.07232
1582297446041190,2.36263,-0.280693,-2.07232
1582297446063976,2.36266,-0.28059,-2.07234
1582297446078931,2.36266,-0.28059,-2.07234
1582297446101723,2.36266,-0.28059,-2.07234
1582297446123597,2.36263,-0.280693,-2.07232
1582297446138751,2.36263,-0.280693,-2.07232
1582297446161831,2.36255,-0.28064,-2.07236
1582297446183766,2.36255,-0.28064,-2.07236
1582297446206386,2.36255,-0.28064,-2.07236
1582297446221540,2.36255,-0.28064,-2.07236
1582297446243492,2.36255,-0.28064,-2.07236
1582297446258725,2.36243,-0.280601,-2.0722
1582297446281372,2.36236,-0.280548,-2.07224
1582297446304115,2.36236,-0.280548,-2.07224
1582297446319197,2.36236,-0.280548,-2.07224
1582297446341084,2.36236,-0.280548,-2.07224
1582297446363955,2.36236,-0.280548,-2.07224
1582297446379972,2.36236,-0.280548,-2.07224
1582297446401064,2.36236,-0.280548,-2.07224
1582297446423986,2.36228,-0.280494,-2.07228
1582297446439759,2.36228,-0.280494,-2.07228
1582297446461703,2.36228,-0.280494,-2.07228
1582297446483795,2.36228,-0.280494,-2.07228
1582297446500171,2.36228,-0.280494,-2.07228
1582297446521893,2.36228,-0.280494,-2.07228
1582297446543855,2.36209,-0.280402,-2.07216
1582297446560430,2.36205,-0.280506,-2.07215
1582297446581595,2.3614,-0.280265,-2.07202
1582297446603519,2.36086,-0.279992,-2.07211
1582297446620325,2.36086,-0.279992,-2.07211
1582297446641372,2.36086,-0.279992,-2.07211
1582297446663633,2.36086,-0.279992,-2.07211
1582297446681107,2.36086,-0.279992,-2.07211
1582297446701555,2.36086,-0.279992,-2.07211
1582297446724013,2.36086,-0.279992,-2.07211
1582297446741952,2.36079,-0.279938,-2.07214
1582297446763886,2.36079,-0.279938,-2.07214
1582297446778852,2.36075,-0.280042,-2.07213
1582297446802028,2.36075,-0.280042,-2.07213
1582297446821744,2.36075,-0.280042,-2.07213
1582297446839112,2.36075,-0.280042,-2.07213
1582297446861719,2.36075,-0.280042,-2.07213
1582297446881979,2.36055,-0.27995,-2.07201
1582297446899524,2.36055,-0.27995,-2.07201
1582297446921472,2.36055,-0.27995,-2.07201
1582297446941594,2.36341,-0.279388,-2.07471
1582297446959369,2.36241,-0.279549,-2.07764
1582297446981801,2.35926,-0.2795,-2.07898
1582297447001524,2.36208,-0.279422,-2.07754
1582297447019202,2.36063,-0.279321,-2.0776
1582297447041150,2.36032,-0.27947,-2.0775
1582297447061551,2.35927,-0.279639,-2.07605
1582297447079043,2.3591,-0.279497,-2.07388
1582297447101995,2.35732,-0.280081,-2.07307
1582297447121381,2.3567,-0.280239,-2.0717
1582297447138888,2.35602,-0.279685,-2.0702
1582297447161822,2.35551,-0.279013,-2.06918
1582297447181798,2.35466,-0.278386,-2.06956
1582297447198725,2.35481,-0.277767,-2.07043
1582297447221696,2.35487,-0.277475,-2.07133
1582297447241669,2.35487,-0.277165,-2.07259
1582297447258572,2.35553,-0.277666,-2.07352
1582297447281500,2.35586,-0.277813,-2.07387
1582297447301615,2.35712,-0.277876,-2.07337
1582297447319960,2.35714,-0.278032,-2.07244
1582297447341342,2.35758,-0.278389,-2.07182
1582297447362292,2.35708,-0.278567,-2.07123
1582297447379245,2.3565,-0.27864,-2.07099
1582297447401492,2.3565,-0.27864,-2.07099
1582297447422132,2.35618,-0.278754,-2.07145
1582297447439327,2.35548,-0.278807,-2.07217
1582297447461471,2.35537,-0.278545,-2.07258
1582297447482962,2.35537,-0.278545,-2.07258
1582297447498051,2.35553,-0.27848,-2.07275
1582297447521141,2.35599,-0.278681,-2.07245
1582297447542298,2.35635,-0.278742,-2.07218
1582297447565745,2.35631,-0.278775,-2.07223
1582297447580709,2.35627,-0.278878,-2.07222
1582297447601872,2.35655,-0.278555,-2.07213
1582297447618607,2.3562,-0.278304,-2.0724
1582297447640714,2.3557,-0.277947,-2.07275
1582297447663479,2.35534,-0.277886,-2.07302
1582297447678446,2.35538,-0.277783,-2.07304
1582297447700523,2.35538,-0.277783,-2.07304
1582297447723326,2.35588,-0.27821,-2.07262
1582297447738488,2.35644,-0.278345,-2.07222
1582297447760436,2.35661,-0.278314,-2.07184
1582297447783160,2.35661,-0.278314,-2.07184
1582297447798270,2.35654,-0.27826,-2.07188
1582297447821059,2.35654,-0.27826,-2.07188
1582297447843260,2.35654,-0.27826,-2.07188
1582297447857966,2.35654,-0.27826,-2.07188
1582297447880930,2.35654,-0.27826,-2.07188
1582297447902835,2.3572,-0.278275,-2.07152
1582297447917867,2.35745,-0.278386,-2.07128
1582297447940742,2.35733,-0.278348,-2.07112
1582297447963681,2.35733,-0.278348,-2.07112
1582297447977708,2.35733,-0.278348,-2.07112
1582297448000581,2.35733,-0.278348,-2.07112
1582297448023671,2.35733,-0.278348,-2.07112
1582297448037716,2.35733,-0.278348,-2.07112
1582297448060752,2.35776,-0.27841,-2.07113
1582297448083355,2.35815,-0.278576,-2.07111
1582297448097619,2.35841,-0.278704,-2.07095
1582297448121254,2.35841,-0.278704,-2.07095
1582297448151183,2.35834,-0.27865,-2.07099
1582297448164418,2.35841,-0.278704,-2.07095
1582297448181101,2.35841,-0.278704,-2.07095
1582297448203044,2.3592,-0.278515,-2.07106
1582297448224225,2.36029,-0.278611,-2.07096
1582297448240934,2.36111,-0.278823,-2.07071
1582297448262926,2.36196,-0.279191,-2.0704
1582297448284874,2.36325,-0.279363,-2.07017
1582297448300778,2.36395,-0.279554,-2.07001
1582297448323722,2.36496,-0.279842,-2.06964
1582297448344842,2.36567,-0.280348,-2.0691
1582297448360793,2.36641,-0.280698,-2.06888
1582297448383552,2.36723,-0.280929,-2.06888
1582297448404588,2.36764,-0.281165,-2.06864
1582297448428435,2.3682,-0.28125,-2.06856
1582297448443399,2.36871,-0.281422,-2.06822
1582297448464571,2.36871,-0.281422,-2.06822
1582297448480474,2.36925,-0.281698,-2.06813
1582297448511276,2.37003,-0.282016,-2.06787
1582297448524520,2.37077,-0.282367,-2.06766
1582297448541138,2.37143,-0.282665,-2.06749
1582297448563078,2.37185,-0.282919,-2.06749
1582297448584217,2.37205,-0.282994,-2.06737
1582297448601029,2.37205,-0.282994,-2.06737
1582297448622915,2.3726,-0.283081,-2.06729
1582297448645858,2.37306,-0.283231,-2.06731
1582297448660865,2.37403,-0.283572,-2.06723
1582297448683095,2.37482,-0.283892,-2.06698
1582297448706284,2.37505,-0.284126,-2.0668
1582297448720691,2.37477,-0.284169,-2.06672
1582297448743590,2.37477,-0.284169,-2.06672
1582297448765532,2.37477,-0.284169,-2.06672
1582297448780490,2.37481,-0.284137,-2.06667
1582297448803691,2.37494,-0.284176,-2.06682
1582297448825496,2.37505,-0.284126,-2.0668
1582297448840330,2.37497,-0.284072,-2.06684
1582297448863344,2.37559,-0.284402,-2.06672
1582297448886215,2.37609,-0.284711,-2.06669
1582297448900229,2.37666,-0.285145,-2.06655
1582297448923108,2.37659,-0.285091,-2.06659
1582297448946055,2.3771,-0.28521,-2.06656
1582297448960014,2.37818,-0.285502,-2.06647
1582297448983152,2.37884,-0.285991,-2.0663
1582297449005887,2.37946,-0.286395,-2.06612
1582297449019865,2.37964,-0.286866,-2.06623
1582297449042970,2.38011,-0.28709,-2.06619
1582297449065738,2.38092,-0.287252,-2.06626
1582297449080046,2.3822,-0.287827,-2.06629
1582297449103628,2.38304,-0.288337,-2.06631
1582297449125573,2.38301,-0.288441,-2.0663
1582297449146590,2.38335,-0.288642,-2.06634
1582297449163471,2.38405,-0.289044,-2.06644
1582297449185466,2.38462,-0.289422,-2.06662
1582297449206397,2.38465,-0.289508,-2.06663
1582297449223304,2.38465,-0.289508,-2.06663
1582297449246285,2.38477,-0.289546,-2.06679
1582297449267219,2.38477,-0.289546,-2.06679
1582297449283150,2.38477,-0.289546,-2.06679
1582297449306090,2.38477,-0.289546,-2.06679
1582297449327241,2.38477,-0.289546,-2.06679
1582297449342998,2.38477,-0.289546,-2.06679
1582297449365992,2.38477,-0.289546,-2.06679
1582297449387069,2.38447,-0.289794,-2.06695
1582297449402964,2.38493,-0.29015,-2.06721
1582297449425770,2.38557,-0.290599,-2.0676
1582297449447175,2.38582,-0.29114,-2.06793
1582297449463664,2.386,-0.291612,-2.06804
1582297449485880,2.38641,-0.292071,-2.0683
1582297449506585,2.38679,-0.292636,-2.06854
1582297449522504,2.38747,-0.293153,-2.0687
1582297449545452,2.38763,-0.293846,-2.0693
1582297449568448,2.38752,-0.294565,-2.06958
1582297449583617,2.38796,-0.295126,-2.07009
1582297449605671,2.38797,-0.295621,-2.07059
1582297449628239,2.38825,-0.296263,-2.07118
1582297449643288,2.3889,-0.2969,-2.07157
1582297449666131,2.38993,-0.297633,-2.07203
1582297449688247,2.39081,-0.298521,-2.0725
1582297449703023,2.39196,-0.299466,-2.07288
1582297449725968,2.39233,-0.300219,-2.07312
1582297449748020,2.3923,-0.300993,-2.07337
1582297449762863,2.39283,-0.30168,-2.07379
1582297449786211,2.39312,-0.302306,-2.07414
1582297449815731,2.39322,-0.302928,-2.07454
1582297449822703,2.39348,-0.303206,-2.07494
1582297449845643,2.39314,-0.303253,-2.0757
1582297449868623,2.39355,-0.303347,-2.07689
1582297449882546,2.39405,-0.303727,-2.07861
1582297449905628,2.39311,-0.304525,-2.08135
1582297449928422,2.3952,-0.305954,-2.08491
1582297449942585,2.39794,-0.30972,-2.08753
1582297449965464,2.39797,-0.314659,-2.08952
1582297449988262,2.39031,-0.320676,-2.08932
1582297450009405,2.37171,-0.329624,-2.08501
1582297450026159,2.33342,-0.335722,-2.07884
1582297450048106,2.28342,-0.338657,-2.07032
1582297450069460,2.22888,-0.32735,-2.07729
1582297450093261,2.21596,-0.295514,-2.05916
1582297450109939,2.19582,-0.264428,-2.03521
1582297450128883,2.17377,-0.235835,-1.99504
1582297450145867,2.15644,-0.20511,-1.94106
1582297450167983,2.14572,-0.170555,-1.88095
1582297450189753,2.13628,-0.136659,-1.81726
1582297450205691,2.1319,-0.103627,-1.74709
1582297450228616,2.1318,-0.0739277,-1.67165
1582297450249625,2.13503,-0.0482604,-1.5942
1582297450265516,2.13627,-0.0263519,-1.5162
1582297450288470,2.1344,-0.00802022,-1.43832
1582297450309458,2.13209,0.00625003,-1.36394
1582297450325356,2.13098,0.0176143,-1.29228
1582297450348351,2.13541,0.02521,-1.22277
1582297450369631,2.14296,0.0308315,-1.15583
1582297450385242,2.14996,0.0328094,-1.09263
1582297450408151,2.15673,0.0303583,-1.03498
1582297450429476,2.16166,0.0254642,-0.980925
1582297450445104,2.17121,0.0211298,-0.93168
1582297450468292,2.18776,0.018748,-0.887473
1582297450488982,2.20354,0.0123471,-0.848309
1582297450505042,2.21275,-0.000398725,-0.815364
1582297450527818,2.22419,-0.0180271,-0.785734
1582297450550810,2.23885,-0.0360435,-0.7601
1582297450564779,2.25019,-0.0535839,-0.739685
1582297450588652,2.26049,-0.0684508,-0.722008
1582297450610595,2.27331,-0.0813222,-0.706991
1582297450624985,2.29065,-0.0943701,-0.695997
1582297450648492,2.30217,-0.108879,-0.689232
1582297450670746,2.31106,-0.121358,-0.685145
1582297450691759,2.31857,-0.132814,-0.682945
1582297450708332,2.32261,-0.14543,-0.680799
1582297450731289,2.32888,-0.156346,-0.680256
1582297450752261,2.33227,-0.165222,-0.681136
1582297450768383,2.33124,-0.174142,-0.681761
1582297450791111,2.33538,-0.182051,-0.680606
1582297450812053,2.34259,-0.190249,-0.677797
1582297450828014,2.34955,-0.195938,-0.674782
1582297450851194,2.35039,-0.201153,-0.67198
1582297450856002,2.35155,-0.204883,-0.669203
1582297450879070,2.35748,-0.208997,-0.664539
1582297450896919,2.36345,-0.211956,-0.657919
1582297450915788,2.36883,-0.213996,-0.651146
1582297450939022,2.36989,-0.214309,-0.645776
1582297450954120,2.37556,-0.214096,-0.639721
1582297450976622,2.38278,-0.212493,-0.634784
1582297450998757,2.38534,-0.208917,-0.631809
1582297451013723,2.38519,-0.206927,-0.630565
1582297451036515,2.38285,-0.206217,-0.630458
1582297451058610,2.38211,-0.20553,-0.630458
1582297451073358,2.38285,-0.204763,-0.631853
1582297451096650,2.38372,-0.204234,-0.634268
1582297451112475,2.38539,-0.204533,-0.637058
1582297451134200,2.38702,-0.204721,-0.639893
1582297451156131,2.38842,-0.205853,-0.643113
1582297451172090,2.38793,-0.209649,-0.646117
1582297451201249,2.38774,-0.215087,-0.647404
1582297451216308,2.38936,-0.216873,-0.648831
1582297451232939,2.38963,-0.217789,-0.652862
1582297451254073,2.38864,-0.218664,-0.656949
1582297451276014,2.38952,-0.220184,-0.659652
1582297451292771,2.38862,-0.222479,-0.662354
1582297451313962,2.38428,-0.225566,-0.665328
1582297451336651,2.38009,-0.225979,-0.668275
1582297451353815,2.37914,-0.222653,-0.671521
1582297451373917,2.37975,-0.217504,-0.674828
1582297451396508,2.38053,-0.212407,-0.676827
1582297451414443,2.38194,-0.207194,-0.677255
1582297451433397,2.38214,-0.200951,-0.678291
1582297451456387,2.37689,-0.193506,-0.680399
1582297451481886,2.37208,-0.186045,-0.684735
1582297451493426,2.3705,-0.178939,-0.692204
1582297451516375,2.36843,-0.172197,-0.703007
1582297451541103,2.36523,-0.165715,-0.717557
1582297451554117,2.36655,-0.159311,-0.734958
1582297451576202,2.3628,-0.154053,-0.755109
1582297451593964,2.3558,-0.153272,-0.781229
1582297451614094,2.35178,-0.155229,-0.812078
1582297451636057,2.35534,-0.155706,-0.847198
1582297451653989,2.35661,-0.154878,-0.882667
1582297451674168,2.3548,-0.156391,-0.924062
1582297451696060,2.35891,-0.160007,-0.973805
1582297451713644,2.36842,-0.165092,-1.02892
1582297451733819,2.37529,-0.170243,-1.08486
1582297451757531,2.38152,-0.172756,-1.14397
1582297451774491,2.38983,-0.172443,-1.20793
1582297451793855,2.39926,-0.171264,-1.2744
1582297451816516,2.40654,-0.171628,-1.3403
1582297451834319,2.40787,-0.174348,-1.40823
1582297451853462,2.40381,-0.177607,-1.47769
1582297451876423,2.3992,-0.180074,-1.54508
1582297451894168,2.39356,-0.181497,-1.60953
1582297451914111,2.39223,-0.182738,-1.67453
1582297451936208,2.39724,-0.184177,-1.73973
1582297451954048,2.40154,-0.187439,-1.80077
1582297451974322,2.39789,-0.193375,-1.85386
1582297452003922,2.39055,-0.202969,-1.89816
1582297452013890,2.38464,-0.21451,-1.93935
1582297452034020,2.38579,-0.225448,-1.97839
1582297452055731,2.38436,-0.234349,-2.01171
1582297452073688,2.3805,-0.241807,-2.04037
1582297452094624,2.37539,-0.247187,-2.06647
1582297452116744,2.36532,-0.251774,-2.0892
1582297452134526,2.34613,-0.255489,-2.10835
1582297452155460,2.32537,-0.259951,-2.12393
1582297452176551,2.31177,-0.265252,-2.13583
1582297452194360,2.30444,-0.26762,-2.14556
1582297452215299,2.30118,-0.267102,-2.1562
1582297452236440,2.29924,-0.268687,-2.16643
1582297452254431,2.29483,-0.274438,-2.17402
1582297452275143,2.29265,-0.281889,-2.17921
1582297452296236,2.29811,-0.28737,-2.18394
1582297452314095,2.29629,-0.289006,-2.19059
1582297452334983,2.2857,-0.287337,-2.19407
1582297452355928,2.27828,-0.286043,-2.19114
1582297452373876,2.27446,-0.286494,-2.18853
1582297452394827,2.27428,-0.288101,-2.18765
1582297452416763,2.28256,-0.288067,-2.18772
1582297452434548,2.29561,-0.287676,-2.18933
1582297452456661,2.30269,-0.286229,-2.19084
1582297452475830,2.30296,-0.284987,-2.19052
1582297452493556,2.30526,-0.282827,-2.18905
1582297452515718,2.31078,-0.280851,-2.19027
1582297452536583,2.31685,-0.280205,-2.1935
1582297452560422,2.32154,-0.278734,-2.19703
1582297452575456,2.32386,-0.278179,-2.20062
1582297452597347,2.32761,-0.277742,-2.20273
1582297452613277,2.32856,-0.276215,-2.20361
1582297452636174,2.32605,-0.274009,-2.205
1582297452650138,2.32298,-0.271944,-2.2075
1582297452673380,2.31953,-0.270547,-2.20864
1582297452696014,2.32164,-0.269698,-2.20876
1582297452709983,2.3262,-0.268026,-2.20868
1582297452732963,2.32578,-0.266361,-2.20896
1582297452755857,2.32088,-0.265089,-2.20856
1582297452769873,2.31312,-0.264649,-2.20699
1582297452792943,2.30741,-0.264314,-2.20442
1582297452815866,2.30852,-0.262832,-2.20341
1582297452838634,2.31039,-0.261488,-2.20414
1582297452853606,2.30668,-0.261226,-2.20499
1582297452875770,2.29922,-0.261877,-2.20474
1582297452889673,2.29241,-0.264716,-2.20381
1582297452913495,2.2861,-0.266672,-2.20212
1582297452935432,2.28394,-0.26694,-2.20019
1582297452957375,2.28516,-0.268002,-2.19885
1582297452973524,2.28808,-0.270263,-2.19685
1582297452996212,2.28959,-0.272061,-2.19484
1582297453017435,2.2898,-0.272697,-2.19289
1582297453033308,2.29225,-0.273973,-2.19052
1582297453056056,2.29441,-0.274607,-2.18662
1582297453077218,2.2954,-0.273807,-2.18227
1582297453092955,2.29715,-0.27148,-2.17795
1582297453115897,2.29784,-0.269121,-2.17299
1582297453143975,2.29814,-0.26677,-2.1661
1582297453152846,2.29587,-0.265189,-2.15829
1582297453175732,2.29381,-0.263011,-2.1498
1582297453197163,2.29166,-0.258559,-2.14205
1582297453212631,2.28726,-0.254497,-2.13578
1582297453235573,2.2798,-0.253027,-2.13075
1582297453256651,2.27724,-0.255393,-2.12559
1582297453272472,2.28418,-0.260378,-2.12234
1582297453295411,2.28919,-0.266656,-2.12568
1582297453317409,2.29404,-0.275356,-2.13378
1582297453332558,2.29992,-0.286372,-2.14183
1582297453355255,2.30875,-0.297336,-2.14797
1582297453378522,2.31885,-0.305619,-2.15309
1582297453392156,2.32691,-0.306842,-2.14984
1582297453422164,2.3347,-0.301298,-2.13337
1582297453438540,2.33809,-0.291367,-2.12465
1582297453452990,2.33246,-0.284381,-2.12215
1582297453475928,2.33244,-0.278356,-2.12338
1582297453497953,2.32973,-0.274207,-2.12458
1582297453519812,2.32252,-0.271301,-2.12873
1582297453535773,2.31339,-0.270994,-2.1337
1582297453557909,2.31156,-0.270689,-2.13851
1582297453579863,2.31412,-0.270431,-2.14049
1582297453595733,2.3202,-0.270223,-2.14036
1582297453618612,2.32455,-0.269794,-2.13848
1582297453639549,2.32749,-0.270164,-2.13478
1582297453655817,2.33154,-0.270875,-2.12984
1582297453685484,2.33726,-0.269821,-2.12688
1582297453699539,2.33974,-0.264652,-2.12718
1582297453717344,2.33751,-0.262346,-2.1298
1582297453738329,2.32979,-0.263419,-2.12982
1582297453759570,2.33278,-0.26393,-2.12913
1582297453776125,2.33708,-0.262534,-2.12949
1582297453798078,2.34579,-0.261194,-2.13131
1582297453819443,2.35065,-0.261724,-2.13118
1582297453835969,2.35465,-0.262012,-2.12985
1582297453858138,2.35688,-0.262297,-2.12828
1582297453879000,2.35951,-0.262418,-2.12773
1582297453895805,2.36158,-0.262958,-2.1268
1582297453917940,2.36257,-0.262947,-2.12557
1582297453938695,2.36261,-0.26296,-2.12431
1582297453955642,2.36385,-0.262678,-2.12419
1582297453978618,2.36481,-0.263456,-2.12426
1582297453999734,2.36536,-0.264265,-2.12345
1582297454015485,2.36707,-0.264692,-2.12288
1582297454038427,2.36738,-0.265798,-2.12212
1582297454059533,2.36823,-0.266662,-2.12076
1582297454075494,2.36988,-0.267648,-2.11921
1582297454098596,2.37017,-0.268479,-2.11739
1582297454119396,2.3688,-0.268528,-2.11646
1582297454136162,2.36644,-0.267919,-2.11658
1582297454158106,2.36429,-0.268052,-2.11682
1582297454179378,2.36265,-0.268412,-2.11664
1582297454196044,2.36185,-0.268083,-2.11659
1582297454225927,2.36209,-0.268068,-2.11672
1582297454240881,2.36409,-0.268484,-2.11656
1582297454255961,2.36597,-0.269422,-2.1157
1582297454277966,2.36683,-0.26977,-2.11539
1582297454307707,2.36728,-0.270149,-2.11509
1582297454315736,2.36814,-0.270256,-2.11509
1582297454345603,2.36888,-0.270345,-2.11518
1582297454360567,2.36997,-0.270176,-2.11539
1582297454375857,2.37048,-0.270091,-2.11535
1582297454398526,2.37129,-0.269972,-2.11548
1582297454420402,2.37283,-0.270409,-2.11588
1582297454435505,2.37408,-0.271032,-2.11651
1582297454458305,2.37408,-0.271843,-2.11814
1582297454481239,2.37367,-0.273136,-2.1197
1582297454495212,2.37518,-0.274414,-2.12178
1582297454518152,2.37777,-0.275877,-2.12384
1582297454540097,2.37983,-0.277149,-2.12592
1582297454555040,2.38159,-0.278177,-2.12767
1582297454577988,2.38372,-0.279572,-2.12875
1582297454600922,2.385,-0.280295,-2.12878
1582297454614889,2.38708,-0.280539,-2.12828
1582297454637819,2.39046,-0.280644,-2.1274
1582297454661057,2.39371,-0.280441,-2.12564
1582297454674736,2.39673,-0.279533,-2.12364
1582297454698655,2.39945,-0.278672,-2.12147
1582297454720964,2.40022,-0.278215,-2.11893
1582297454734774,2.39865,-0.278168,-2.11692
1582297454758495,2.3957,-0.278295,-2.11516
1582297454788422,2.39437,-0.278226,-2.11329
1582297454809556,2.39318,-0.278147,-2.11197
1582297454818515,2.39141,-0.278169,-2.11065
1582297454840886,2.3897,-0.278185,-2.1096
1582297454862218,2.38803,-0.278039,-2.10889
1582297454878499,2.38715,-0.278159,-2.10848
1582297454901114,2.38715,-0.278197,-2.10792
1582297454922282,2.38795,-0.278369,-2.10735
1582297454938015,2.38812,-0.27834,-2.10696
1582297454960963,2.38794,-0.278101,-2.10628
1582297454982108,2.3885,-0.278044,-2.10589
1582297454997959,2.38847,-0.278149,-2.10587
1582297455020798,2.38827,-0.27806,-2.10575
1582297455041887,2.38819,-0.278008,-2.10579
1582297455058702,2.38826,-0.278266,-2.106
1582297455088620,2.38774,-0.278479,-2.10634
1582297455103586,2.3878,-0.278682,-2.10686
1582297455125517,2.38841,-0.279167,-2.10755
1582297455146680,2.38902,-0.279374,-2.10806
1582297455161575,2.38987,-0.27962,-2.10839
1582297455178610,2.39049,-0.279448,-2.1089
1582297455200480,2.39049,-0.279448,-2.1089
1582297455221258,2.39009,-0.279493,-2.10915
1582297455238298,2.38898,-0.279602,-2.10924
1582297455261156,2.38804,-0.279454,-2.10951
1582297455283103,2.3869,-0.279407,-2.10966
1582297455299049,2.3865,-0.279453,-2.10991
1582297455321002,2.3865,-0.279453,-2.10991
1582297455342932,2.38674,-0.279248,-2.11004
1582297455365933,2.38682,-0.2793,-2.11001
1582297455380873,2.3876,-0.279532,-2.10981
1582297455402955,2.3891,-0.279639,-2.1094
1582297455417785,2.39002,-0.27948,-2.10863
1582297455447153,2.38964,-0.279692,-2.10794
1582297455463612,2.38891,-0.279727,-2.10745
1582297455477640,2.38763,-0.279669,-2.1068
1582297455500951,2.38595,-0.279727,-2.10633
1582297455530473,2.38373,-0.27978,-2.10588
1582297455537419,2.38139,-0.279498,-2.1059
1582297455560464,2.37955,-0.279324,-2.1059
1582297455583353,2.37811,-0.279051,-2.10595
1582297455598316,2.37677,-0.279194,-2.10616
1582297455620500,2.37513,-0.27904,-2.10635
1582297455643346,2.37407,-0.279118,-2.1064
1582297455664244,2.37298,-0.27904,-2.1065
1582297455681037,2.37259,-0.278951,-2.10644
1582297455702978,2.37194,-0.278721,-2.1063
1582297455717928,2.37129,-0.278562,-2.1061
1582297455740867,2.37032,-0.278485,-2.10587
1582297455762967,2.37032,-0.278485,-2.10587
1582297455784829,2.37032,-0.278485,-2.10587
1582297455808687,2.36946,-0.278373,-2.10586
1582297455823649,2.36899,-0.278422,-2.10584
1582297455844776,2.36895,-0.278455,-2.10589
1582297455860584,2.36899,-0.278422,-2.10584
1582297455891525,2.36899,-0.278422,-2.10584
1582297455892461,2.36903,-0.278317,-2.10585
1582297455920399,2.36903,-0.278317,-2.10585
1582297455926777,2.37011,-0.278603,-2.10599
1582297455949318,2.37061,-0.278658,-2.10627
1582297455974248,2.37095,-0.279041,-2.10631
1582297455986398,2.37095,-0.279041,-2.10631
1582297456009188,2.37036,-0.279279,-2.10663
1582297456026888,2.37043,-0.279331,-2.10659
1582297456046517,2.37043,-0.279331,-2.10659
1582297456069181,2.37043,-0.279331,-2.10659
1582297456086014,2.37067,-0.278813,-2.10711
1582297456105894,2.37076,-0.278639,-2.10852
1582297456129019,2.37026,-0.278857,-2.10976
1582297456146781,2.37055,-0.278996,-2.11072
1582297456166219,2.37055,-0.278996,-2.11072
1582297456188709,2.37051,-0.279101,-2.11071
1582297456206620,2.37059,-0.279152,-2.11067
1582297456225795,2.37117,-0.279572,-2.11053
1582297456251714,2.37117,-0.279572,-2.11053
1582297456266462,2.3704,-0.279377,-2.11017
1582297456286452,2.36966,-0.279286,-2.11007
1582297456308791,2.36966,-0.279286,-2.11007
1582297456326827,2.36966,-0.279286,-2.11007
1582297456346341,2.3702,-0.279254,-2.11061
1582297456376359,2.36841,-0.278742,-2.11095
1582297456386849,2.36893,-0.278242,-2.11043
1582297456406511,2.36803,-0.27945,-2.10987
1582297456429055,2.36946,-0.280169,-2.10974
1582297456446519,2.36943,-0.279823,-2.10979
1582297456482972,2.36883,-0.278935,-2.10887
1582297456488917,2.3675,-0.279292,-2.10933
1582297456506818,2.36705,-0.279635,-2.10957
1582297456526172,2.36614,-0.279735,-2.11042
1582297456549004,2.36607,-0.279684,-2.11046
1582297456566669,2.36417,-0.279239,-2.11002
1582297456586607,2.36376,-0.279358,-2.10932
1582297456611701,2.3631,-0.27984,-2.10904
1582297456626921,2.36347,-0.281089,-2.10887
1582297456646508,2.36097,-0.280782,-2.10938
1582297456668515,2.36242,-0.280389,-2.10914
1582297456686352,2.36051,-0.280121,-2.10951
1582297456706437,2.36059,-0.280172,-2.10947
1582297456728418,2.35986,-0.281005,-2.11036
1582297456754156,2.36038,-0.281805,-2.11083
1582297456767500,2.35984,-0.281563,-2.11116
1582297456789108,2.36012,-0.280764,-2.1109
1582297456806463,2.3594,-0.280294,-2.1108
1582297456827967,2.35964,-0.280089,-2.11094
1582297456849115,2.36002,-0.280126,-2.11131
1582297456866862,2.36088,-0.279764,-2.11114
1582297456887800,2.36035,-0.278894,-2.11075
1582297456908983,2.36135,-0.278222,-2.11018
1582297456926696,2.36125,-0.278097,-2.1094
1582297456953832,2.36243,-0.278345,-2.10886
1582297456968808,2.36235,-0.278483,-2.1089
1582297456986541,2.36244,-0.278188,-2.10831
1582297457009481,2.36133,-0.278059,-2.10784
1582297457030464,2.36133,-0.278059,-2.10784
1582297457046976,2.36049,-0.278505,-2.10802
1582297457067352,2.36068,-0.278993,-2.10838
1582297457088323,2.36063,-0.279477,-2.10836
1582297457106214,2.36066,-0.279893,-2.10823
1582297457127288,2.36038,-0.280202,-2.10808
1582297457149149,2.36038,-0.280202,-2.10808
1582297457166801,2.36038,-0.280202,-2.10808
1582297457188995,2.36027,-0.280255,-2.1081
1582297457209135,2.35926,-0.280212,-2.10792
1582297457226890,2.35876,-0.280106,-2.10796
1582297457249116,2.35876,-0.280106,-2.10796
1582297457268960,2.35941,-0.280335,-2.10809
1582297457286734,2.35937,-0.28044,-2.10807
1582297457308852,2.35875,-0.280316,-2.1082
1582297457328807,2.35875,-0.280316,-2.1082
1582297457346577,2.35875,-0.280316,-2.1082
1582297457369518,2.35875,-0.280316,-2.1082
1582297457396561,2.35847,-0.280333,-2.10868
1582297457406427,2.35842,-0.280577,-2.10898
1582297457429489,2.35838,-0.280421,-2.10904
1582297457449298,2.35846,-0.280472,-2.109
1582297457466300,2.35858,-0.28051,-2.10915
1582297457488196,2.35858,-0.28051,-2.10915
1582297457509182,2.35858,-0.28051,-2.10915
1582297457526092,2.35865,-0.280562,-2.10911
1582297457548091,2.35869,-0.280457,-2.10913
1582297457586155,2.35876,-0.280509,-2.10909
1582297457588928,2.35869,-0.280457,-2.10913
1582297457608213,2.35819,-0.280351,-2.10917
1582297457629061,2.35807,-0.280334,-2.10926
1582297457645836,2.35807,-0.280334,-2.10926
1582297457667911,2.35845,-0.280682,-2.10924
1582297457689784,2.35849,-0.280578,-2.10926
1582297457705615,2.35771,-0.280541,-2.10946
1582297457728548,2.35771,-0.280541,-2.10946
1582297457749704,2.35857,-0.28046,-2.10947
1582297457765495,2.35935,-0.280497,-2.10926
1582297457788391,2.35989,-0.280289,-2.109
1582297457809492,2.35978,-0.280341,-2.10902
1582297457825420,2.35978,-0.280341,-2.10902
1582297457849225,2.35978,-0.280341,-2.10902
1582297457869386,2.36003,-0.280168,-2.1086
1582297457886135,2.36109,-0.279636,-2.10862
1582297457908362,2.36268,-0.279837,-2.10872
1582297457929069,2.36329,-0.279839,-2.10898
1582297457945968,2.3646,-0.280107,-2.10925
1582297457967953,2.36546,-0.280197,-2.10901
1582297457989909,2.36714,-0.28,-2.10915
1582297458005953,2.3682,-0.279971,-2.10878
1582297458028918,2.36996,-0.279428,-2.10864
1582297458049856,2.37088,-0.278847,-2.10843
1582297458065883,2.37089,-0.278189,-2.10826
1582297458088586,2.37134,-0.277638,-2.10777
1582297458110533,2.37271,-0.277199,-2.10758
1582297458133473,2.37354,-0.276946,-2.1074
1582297458148476,2.37434,-0.276608,-2.1072
1582297458170368,2.3745,-0.276558,-2.10657
1582297458185466,2.37524,-0.276912,-2.1066
1582297458208546,2.3759,-0.277385,-2.10642
1582297458230399,2.37706,-0.277723,-2.10652
1582297458245417,2.37749,-0.277968,-2.10653
1582297458268109,2.37761,-0.278006,-2.10668
1582297458291045,2.3787,-0.277823,-2.10665
1582297458312129,2.37929,-0.277794,-2.10659
1582297458327994,2.37996,-0.278061,-2.10617
1582297458350945,2.38125,-0.278285,-2.10587
1582297458364903,2.38165,-0.278239,-2.10562
1582297458387785,2.3815,-0.2781,-2.1052
1582297458417040,2.38143,-0.278048,-2.10524
1582297458424687,2.38164,-0.277724,-2.10487
1582297458448622,2.38176,-0.277761,-2.10502
1582297458470675,2.38176,-0.277761,-2.10502
1582297458484742,2.38171,-0.277793,-2.10508
1582297458508462,2.38171,-0.277793,-2.10508
1582297458530460,2.3814,-0.277684,-2.10505
1582297458545369,2.38135,-0.277734,-2.10535
1582297458568302,2.38135,-0.277734,-2.10535
1582297458590434,2.38127,-0.277682,-2.10538
1582297458612288,2.38127,-0.277682,-2.10538
1582297458628482,2.38061,-0.277658,-2.10549
1582297458651080,2.3799,-0.27765,-2.1054
1582297458672437,2.38002,-0.277687,-2.10556
1582297458695960,2.38042,-0.277641,-2.1053
1582297458710927,2.3803,-0.277604,-2.10515
1582297458732056,2.38042,-0.277641,-2.1053
1582297458747829,2.38136,-0.277861,-2.10496
1582297458770769,2.38257,-0.278151,-2.10478
1582297458791944,2.38342,-0.278382,-2.10486
1582297458808660,2.38358,-0.278504,-2.10503
1582297458830605,2.3835,-0.278451,-2.10507
1582297458851701,2.38358,-0.278504,-2.10503
1582297458868545,2.38462,-0.278823,-2.10523
1582297458890479,2.38586,-0.279233,-2.10555
1582297458911428,2.38715,-0.279593,-2.10557
1582297458928339,2.38788,-0.280065,-2.10568
1582297458950471,2.3883,-0.280517,-2.10594
1582297458972266,2.38896,-0.280765,-2.10632
1582297458988232,2.38946,-0.281007,-2.10661
1582297459010311,2.38996,-0.28125,-2.1069
1582297459032261,2.39034,-0.281545,-2.1072
1582297459048255,2.39096,-0.281618,-2.1074
1582297459070959,2.39096,-0.281618,-2.1074
1582297459092908,2.39096,-0.281618,-2.1074
1582297459108090,2.39096,-0.281618,-2.1074
1582297459131100,2.39116,-0.281707,-2.10752
1582297459153740,2.3912,-0.281602,-2.10754
1582297459167770,2.39085,-0.281425,-2.10773
1582297459190642,2.39029,-0.281292,-2.10813
1582297459220570,2.39008,-0.281147,-2.10832
1582297459227757,2.39008,-0.281147,-2.10832
1582297459250479,2.38965,-0.281107,-2.10856
1582297459273416,2.38906,-0.281136,-2.10862
1582297459287383,2.38859,-0.281184,-2.1086
1582297459310365,2.38803,-0.281559,-2.10861
1582297459333323,2.38733,-0.281378,-2.10876
1582297459347264,2.38663,-0.280992,-2.10867
1582297459370166,2.38567,-0.280591,-2.10812
1582297459393284,2.38447,-0.280395,-2.10743
1582297459407066,2.38296,-0.28018,-2.10689
1582297459431001,2.38157,-0.279966,-2.10602
1582297459453546,2.38022,-0.279907,-2.1051
1582297459467907,2.38009,-0.279967,-2.10423
1582297459497816,2.37998,-0.2803,-2.10338
1582297459512957,2.38085,-0.280658,-2.10308
1582297459527800,2.38217,-0.281176,-2.10305
1582297459550678,2.38369,-0.281973,-2.10314
1582297459580847,2.385,-0.282363,-2.10349
1582297459594731,2.38544,-0.282601,-2.10439
1582297459610521,2.38522,-0.282813,-2.10538
1582297459633518,2.3852,-0.282854,-2.10657
1582297459654448,2.38506,-0.282686,-2.10784
1582297459670701,2.38461,-0.282464,-2.10878
1582297459693316,2.38353,-0.282116,-2.10983
1582297459714430,2.38266,-0.281462,-2.11075
1582297459731219,2.38273,-0.280971,-2.11166
1582297459753199,2.38343,-0.2804,-2.1122
1582297459774445,2.38347,-0.280295,-2.11222
1582297459791037,2.38406,-0.280265,-2.11215
1582297459813148,2.38472,-0.280287,-2.11205
1582297459834314,2.38543,-0.280277,-2.11189
1582297459851130,2.38594,-0.280367,-2.11162
1582297459872926,2.38634,-0.280582,-2.11129
1582297459894754,2.38658,-0.280566,-2.11143
1582297459911042,2.38658,-0.280566,-2.11143
1582297459932847,2.38616,-0.280621,-2.11079
1582297459954592,2.38621,-0.280627,-2.11018
1582297459970551,2.38595,-0.280613,-2.10972
1582297459993491,2.38534,-0.280651,-2.10889
1582297460015781,2.38489,-0.280359,-2.10831
1582297460030396,2.38489,-0.280359,-2.10831
1582297460053341,2.38464,-0.280302,-2.10825
1582297460083277,2.38395,-0.280249,-2.10802
1582297460090271,2.38325,-0.280052,-2.10793
1582297460113228,2.38255,-0.279927,-2.10777
1582297460136108,2.38185,-0.279729,-2.10769
1582297460150390,2.3817,-0.279625,-2.10776
1582297460173013,2.3817,-0.279625,-2.10776
1582297460195998,2.38147,-0.279451,-2.10763
1582297460210084,2.3822,-0.280239,-2.10735
1582297460232941,2.38145,-0.280037,-2.10787
1582297460255942,2.38302,-0.279878,-2.1078
1582297460270073,2.38185,-0.279503,-2.10824
1582297460292739,2.38337,-0.279548,-2.10798
1582297460315632,2.38242,-0.279798,-2.10849
1582297460330596,2.38347,-0.279927,-2.10869
1582297460353526,2.38335,-0.279889,-2.10854
1582297460376466,2.38335,-0.279889,-2.10854
1582297460390429,2.38285,-0.279854,-2.1085
1582297460413624,2.38332,-0.280067,-2.10845
1582297460435351,2.38331,-0.280256,-2.10845
1582297460450285,2.38258,-0.279506,-2.10817
1582297460473205,2.38194,-0.278952,-2.10772
1582297460496145,2.38197,-0.278793,-2.10805
1582297460518093,2.38166,-0.279279,-2.10781
1582297460533260,2.38181,-0.279067,-2.10812
1582297460555983,2.38042,-0.27861,-2.10757
1582297460576984,2.37997,-0.27755,-2.10744
1582297460592886,2.37971,-0.277219,-2.10736
1582297460615891,2.38016,-0.277324,-2.10794
1582297460638347,2.37995,-0.277387,-2.10838
1582297460652740,2.37995,-0.277387,-2.10838
1582297460675671,2.37995,-0.277387,-2.10838
1582297460696666,2.38062,-0.277427,-2.10852
1582297460713571,2.38124,-0.2775,-2.10871
1582297460735792,2.38152,-0.277435,-2.10855
1582297460756823,2.38152,-0.277435,-2.10855
1582297460773403,2.38152,-0.277435,-2.10855
1582297460795489,2.38159,-0.277487,-2.10851
1582297460817292,2.38217,-0.277403,-2.10876
1582297460833495,2.38214,-0.277507,-2.10874
1582297460855662,2.38214,-0.277507,-2.10874
1582297460877339,2.38217,-0.277403,-2.10876
1582297460893325,2.38229,-0.277629,-2.10891
1582297460899066,2.38295,-0.277652,-2.10881
1582297460921014,2.38295,-0.277652,-2.10881
1582297460943999,2.383,-0.277619,-2.10875
1582297460959006,2.38307,-0.277671,-2.10872
1582297460981082,2.38303,-0.277704,-2.10877
1582297461003785,2.38311,-0.277512,-2.10905
1582297461019052,2.3833,-0.277601,-2.10916
1582297461041693,2.3833,-0.277601,-2.10916
1582297461063828,2.3833,-0.278107,-2.10878
1582297461078787,2.38343,-0.278425,-2.10806
1582297461101616,2.38285,-0.278491,-2.10757
1582297461123947,2.38256,-0.278392,-2.10709
1582297461138788,2.38256,-0.278392,-2.10709
1582297461161409,2.38263,-0.278445,-2.10706
1582297461192423,2.38272,-0.278551,-2.10671
1582297461198727,2.38336,-0.278546,-2.10627
1582297461221269,2.3836,-0.27855,-2.1056
1582297461243290,2.38456,-0.278637,-2.10495
1582297461259171,2.3848,-0.27866,-2.10453
1582297461281269,2.38481,-0.278715,-2.10422
1582297461304043,2.38473,-0.278663,-2.10425
1582297461318943,2.38473,-0.278663,-2.10425
1582297461341414,2.38469,-0.278768,-2.10424
1582297461364008,2.38469,-0.278768,-2.10424
1582297461379004,2.38426,-0.278711,-2.10423
1582297461401761,2.38426,-0.278711,-2.10423
1582297461423899,2.38426,-0.278711,-2.10423
1582297461438780,2.38457,-0.278748,-2.10433
1582297461461623,2.38457,-0.278748,-2.10433
1582297461483674,2.38461,-0.278643,-2.10434
1582297461498641,2.38457,-0.278748,-2.10433
1582297461521457,2.38441,-0.27876,-2.10447
1582297461543533,2.3838,-0.277802,-2.10466
1582297461560304,2.38575,-0.278376,-2.10458
1582297461581472,2.38465,-0.278538,-2.10436
1582297461599193,2.38655,-0.278656,-2.10496
1582297461620143,2.38644,-0.278708,-2.10498
1582297461641286,2.38699,-0.278768,-2.10465
1582297461659453,2.38691,-0.278716,-2.10469
1582297461679981,2.38812,-0.27869,-2.10489
1582297461701113,2.38801,-0.278742,-2.10491
1582297461718876,2.38885,-0.278934,-2.10555
1582297461747796,2.38877,-0.278882,-2.10559
1582297461761067,2.38893,-0.278797,-2.10552
1582297461778714,2.38885,-0.278934,-2.10555
1582297461801985,2.38947,-0.279008,-2.10575
1582297461820650,2.38975,-0.279395,-2.10552
1582297461838791,2.38975,-0.279395,-2.10552
1582297461860495,2.38987,-0.27966,-2.10512
1582297461884431,2.38987,-0.27966,-2.10512
1582297461899388,2.38987,-0.27966,-2.10512
1582297461921845,2.38959,-0.279535,-2.10528
1582297461941480,2.38959,-0.279535,-2.10528
1582297461959418,2.3892,-0.279373,-2.10529
1582297461981577,2.3892,-0.279373,-2.10529
1582297462009145,2.3892,-0.279373,-2.10529
1582297462025052,2.38916,-0.279478,-2.10527
1582297462041480,2.38916,-0.279478,-2.10527
1582297462061211,2.38916,-0.279478,-2.10527
1582297462078911,2.38916,-0.279478,-2.10527
1582297462101847,2.38916,-0.279478,-2.10527
1582297462120859,2.38873,-0.279421,-2.10526
1582297462139422,2.38873,-0.279421,-2.10526
1582297462161693,2.38869,-0.279526,-2.10525
1582297462181634,2.38869,-0.279526,-2.10525
1582297462199024,2.38791,-0.279291,-2.10544
1582297462221532,2.38751,-0.279336,-2.10569
1582297462241591,2.38719,-0.279226,-2.10566
1582297462259513,2.38699,-0.279171,-2.10603
1582297462281411,2.38699,-0.279171,-2.10603
1582297462301491,2.38707,-0.279223,-2.10599
1582297462319274,2.38707,-0.279223,-2.10599
1582297462341945,2.38696,-0.279276,-2.10601
1582297462362541,2.38684,-0.279239,-2.10586
1582297462379108,2.38605,-0.279439,-2.10574
1582297462401453,2.38554,-0.279591,-2.1057
1582297462421002,2.38554,-0.279591,-2.1057
1582297462438945,2.38554,-0.279591,-2.1057
1582297462461884,2.38449,-0.279461,-2.1055
1582297462482875,2.38363,-0.279158,-2.10548
1582297462498788,2.38297,-0.278927,-2.10534
1582297462521723,2.38297,-0.278927,-2.10534
1582297462542735,2.38333,-0.278987,-2.10507
1582297462558625,2.38326,-0.278935,-2.10511
1582297462580741,2.38255,-0.278681,-2.10533
1582297462601752,2.38168,-0.278792,-2.10581
1582297462618485,2.38128,-0.278576,-2.10613
1582297462640466,2.38123,-0.278609,-2.10619
1582297462662412,2.38131,-0.278661,-2.10615
1582297462678535,2.38073,-0.278573,-2.10615
1582297462700435,2.38008,-0.278604,-2.10594
1582297462722507,2.38008,-0.278604,-2.10594
1582297462738436,2.38015,-0.278656,-2.1059
1582297462761085,2.38008,-0.278604,-2.10594
1582297462782221,2.38003,-0.278636,-2.10599
1582297462797993,2.37987,-0.278703,-2.10582
1582297462820929,2.37894,-0.2788,-2.10577
1582297462842866,2.3787,-0.278761,-2.10596
1582297462858829,2.37839,-0.278481,-2.10617
1582297462881077,2.37839,-0.278481,-2.10617
1582297462902715,2.37839,-0.278481,-2.10617
1582297462918134,2.37839,-0.278481,-2.10617
1582297462940916,2.37839,-0.278481,-2.10617
1582297462963547,2.37886,-0.278504,-2.10613
1582297462977546,2.37906,-0.278576,-2.106
1582297463000444,2.3789,-0.278643,-2.10583
1582297463023389,2.37894,-0.278539,-2.10584
1582297463037349,2.3789,-0.278643,-2.10583
1582297463060649,2.3789,-0.278643,-2.10583
1582297463083282,2.37874,-0.278467,-2.10597
1582297463097258,2.37859,-0.278363,-2.10605
1582297463121121,2.37863,-0.278258,-2.10606
1582297463143065,2.37894,-0.278349,-2.10584
1582297463157606,2.37894,-0.278349,-2.10584
1582297463181029,2.37918,-0.278388,-2.10566
1582297463203042,2.37906,-0.278369,-2.10575
1582297463225896,2.3789,-0.278436,-2.10558
1582297463247964,2.3789,-0.278436,-2.10558
1582297463262806,2.3789,-0.278436,-2.10558
1582297463277758,2.37855,-0.27845,-2.10579
1582297463300905,2.37871,-0.278382,-2.10596
1582297463323580,2.37871,-0.278382,-2.10596
1582297463344737,2.37878,-0.278434,-2.10592
1582297463360655,2.37941,-0.278319,-2.10611
1582297463383483,2.38,-0.27829,-2.10604
1582297463411545,2.3798,-0.278201,-2.10593
1582297463420327,2.3798,-0.278201,-2.10593
1582297463443265,2.3798,-0.278201,-2.10593
1582297463464407,2.3798,-0.278201,-2.10593
1582297463480357,2.38035,-0.278466,-2.10584
1582297463503190,2.38035,-0.278466,-2.10584
1582297463524185,2.38035,-0.278466,-2.10584
1582297463540997,2.38035,-0.278466,-2.10584
1582297463563065,2.38035,-0.278466,-2.10584
1582297463585886,2.38035,-0.278466,-2.10584
1582297463600902,2.38035,-0.278466,-2.10584
1582297463622835,2.37992,-0.27841,-2.10584
1582297463644787,2.37992,-0.27841,-2.10584
1582297463660965,2.37992,-0.27841,-2.10584
1582297463683615,2.38039,-0.278434,-2.10579
1582297463704668,2.38039,-0.278434,-2.10579
1582297463720577,2.38039,-0.278434,-2.10579
1582297463743455,2.37996,-0.278566,-2.10578
1582297463765458,2.37968,-0.278425,-2.1057
1582297463780416,2.37985,-0.27843,-2.1058
1582297463803296,2.37985,-0.27843,-2.1058
1582297463825735,2.37973,-0.278392,-2.10565
1582297463840253,2.37973,-0.278392,-2.10565
1582297463863202,2.37973,-0.278392,-2.10565
1582297463886075,2.37973,-0.278392,-2.10565
1582297463907174,2.37961,-0.278373,-2.10574
1582297463922987,2.37961,-0.278373,-2.10574
1582297463945915,2.37903,-0.278473,-2.10574
1582297463967863,2.37906,-0.278369,-2.10575
1582297463982904,2.3789,-0.278436,-2.10558
1582297464005760,2.37883,-0.278384,-2.10562
1582297464019722,2.37883,-0.278384,-2.10562
1582297464043674,2.37883,-0.278384,-2.10562
1582297464065596,2.3789,-0.278436,-2.10558
1582297464079727,2.3789,-0.278436,-2.10558
1582297464103495,2.37883,-0.278384,-2.10562
1582297464125437,2.37883,-0.278384,-2.10562
1582297464140395,2.37883,-0.278384,-2.10562
1582297464163591,2.37903,-0.278473,-2.10574
1582297464185284,2.37926,-0.27844,-2.10563
1582297464200288,2.37926,-0.27844,-2.10563
1582297464223237,2.37965,-0.278529,-2.10569
1582297464246168,2.37945,-0.278458,-2.10581
1582297464267251,2.37945,-0.278458,-2.10581
1582297464283149,2.37945,-0.278458,-2.10581
1582297464305951,2.37989,-0.278325,-2.10582
1582297464327101,2.37973,-0.278392,-2.10565
1582297464342859,2.37934,-0.278303,-2.10559
1582297464365795,2.37899,-0.278299,-2.10555
1582297464386736,2.37918,-0.278388,-2.10566
1582297464402695,2.37911,-0.278336,-2.1057
1582297464425647,2.37895,-0.278404,-2.10553
1582297464446630,2.37895,-0.278404,-2.10553
1582297464463575,2.37895,-0.278404,-2.10553
1582297464485646,2.37895,-0.278404,-2.10553
1582297464506556,2.37895,-0.278404,-2.10553
1582297464523369,2.37895,-0.278404,-2.10553
1582297464545427,2.37895,-0.278404,-2.10553
1582297464567304,2.37895,-0.278404,-2.10553
1582297464583467,2.37895,-0.278404,-2.10553
1582297464606148,2.37895,-0.278404,-2.10553
1582297464634651,2.37895,-0.278404,-2.10553
1582297464643053,2.37841,-0.2784,-2.10555
1582297464665990,2.37841,-0.2784,-2.10555
1582297464686988,2.37841,-0.2784,-2.10555
1582297464702888,2.37841,-0.2784,-2.10555
1582297464725828,2.37841,-0.2784,-2.10555
1582297464747926,2.37841,-0.2784,-2.10555
1582297464763726,2.37841,-0.2784,-2.10555
1582297464785887,2.37841,-0.2784,-2.10555
1582297464808608,2.37841,-0.2784,-2.10555
1582297464823571,2.37841,-0.2784,-2.10555
1582297464845744,2.37844,-0.278295,-2.10556
1582297464868507,2.37841,-0.2784,-2.10555
1582297464882546,2.37844,-0.278295,-2.10556
1582297464905405,2.37841,-0.2784,-2.10555
1582297464928346,2.37841,-0.2784,-2.10555
1582297464942261,2.37833,-0.278348,-2.10558
1582297464965404,2.37821,-0.27831,-2.10543
1582297464988132,2.37766,-0.278234,-2.10551
1582297465002845,2.3773,-0.278248,-2.10572
1582297465026026,2.3773,-0.278248,-2.10572
1582297465047980,2.3773,-0.278248,-2.10572
1582297465062926,2.37735,-0.278215,-2.10566
1582297465085864,2.37739,-0.278111,-2.10568
1582297465107994,2.37739,-0.278111,-2.10568
1582297465122773,2.37829,-0.27838,-2.10564
1582297465145706,2.37849,-0.278506,-2.1052
1582297465167844,2.37849,-0.278506,-2.1052
1582297465182669,2.37759,-0.278498,-2.10517
1582297465205545,2.37673,-0.278385,-2.10516
1582297465228542,2.37673,-0.278385,-2.10516
1582297465249681,2.37673,-0.278385,-2.10516
1582297465265770,2.37677,-0.278352,-2.1051
1582297465288371,2.37635,-0.278106,-2.1051
1582297465309648,2.376,-0.278102,-2.10506
1582297465325420,2.376,-0.278102,-2.10506
1582297465356143,2.376,-0.278102,-2.10506
1582297465369329,2.37608,-0.277965,-2.10502
1582297465386061,2.37608,-0.277965,-2.10502
1582297465409201,2.37608,-0.277965,-2.10502
1582297465429002,2.37604,-0.278069,-2.105
1582297465445964,2.376,-0.278102,-2.10506
1582297465468839,2.37604,-0.278069,-2.105
1582297465489783,2.37608,-0.277965,-2.10502
1582297465505740,2.376,-0.278102,-2.10506
1582297465528026,2.37604,-0.278069,-2.105
1582297465549679,2.376,-0.278102,-2.10506
1582297465565583,2.376,-0.278102,-2.10506
1582297465588527,2.376,-0.278102,-2.10506
1582297465609720,2.376,-0.278102,-2.10506
1582297465633454,2.376,-0.278102,-2.10506
1582297465648404,2.376,-0.278102,-2.10506
1582297465670340,2.37643,-0.277969,-2.10506
1582297465685466,2.37663,-0.278041,-2.10493
1582297465708264,2.37663,-0.278041,-2.10493
1582297465731137,2.37663,-0.278041,-2.10493
1582297465746097,2.37663,-0.278041,-2.10493
1582297465768050,2.37707,-0.27789,-2.1047
1582297465791034,2.37734,-0.277752,-2.1046
1582297465805985,2.37734,-0.277752,-2.1046
1582297465827929,2.37722,-0.277805,-2.10462
1582297465850817,2.37722,-0.277805,-2.10462
1582297465864794,2.37722,-0.277805,-2.10462
1582297465887886,2.37726,-0.2777,-2.10464
1582297465911009,2.37789,-0.277828,-2.10452
1582297465924675,2.37789,-0.277828,-2.10452
1582297465932603,2.37793,-0.277724,-2.10453
1582297465954745,2.37883,-0.277804,-2.10449
1582297465976488,2.37969,-0.277918,-2.1045
1582297465992441,2.37957,-0.27788,-2.10435
1582297466013610,2.37957,-0.27788,-2.10435
1582297466036441,2.37957,-0.27788,-2.10435
1582297466052444,2.37957,-0.27788,-2.10435
1582297466073731,2.37957,-0.27788,-2.10435
1582297466096297,2.37957,-0.27788,-2.10435
1582297466112448,2.37957,-0.27788,-2.10435
1582297466134061,2.37957,-0.27788,-2.10435
1582297466156149,2.37989,-0.27799,-2.10438
1582297466172138,2.37989,-0.27799,-2.10438
1582297466194097,2.37981,-0.277848,-2.10424
1582297466216301,2.37981,-0.277848,-2.10424
1582297466232834,2.37993,-0.277885,-2.10439
1582297466253799,2.38,-0.277937,-2.10436
1582297466275684,2.37993,-0.277885,-2.10439
1582297466292635,2.38012,-0.277939,-2.10402
1582297466313833,2.38009,-0.277855,-2.10401
1582297466335889,2.38012,-0.277939,-2.10402
1582297466352582,2.38005,-0.277887,-2.10406
1582297466373610,2.38009,-0.277855,-2.10401
1582297466396553,2.38009,-0.277855,-2.10401
1582297466412683,2.38021,-0.277802,-2.10398
1582297466433704,2.38021,-0.277802,-2.10398
1582297466456385,2.38052,-0.277911,-2.10401
1582297466472157,2.38052,-0.277911,-2.10401
1582297466494158,2.38052,-0.277911,-2.10401
1582297466516240,2.38052,-0.277911,-2.10401
1582297466532417,2.38052,-0.277911,-2.10401
1582297466553935,2.38052,-0.277911,-2.10401
1582297466577872,2.38052,-0.277911,-2.10401
1582297466592838,2.38052,-0.277911,-2.10401
1582297466613978,2.38052,-0.277911,-2.10401
1582297466638974,2.38052,-0.277911,-2.10401
1582297466654090,2.38107,-0.277916,-2.104
1582297466674020,2.38134,-0.278058,-2.10408
1582297466696554,2.38134,-0.278058,-2.10408
1582297466714062,2.38134,-0.278058,-2.10408
1582297466733659,2.38134,-0.278058,-2.10408
1582297466756578,2.38142,-0.27811,-2.10404
1582297466774349,2.38142,-0.27811,-2.10404
1582297466793597,2.38145,-0.278267,-2.10399
1582297466816576,2.38145,-0.278267,-2.10399
1582297466834194,2.38145,-0.278267,-2.10399
1582297466853139,2.38153,-0.278319,-2.10395
1582297466876240,2.38153,-0.278319,-2.10395
1582297466894042,2.38153,-0.278319,-2.10395
1582297466914040,2.38153,-0.278319,-2.10395
1582297466935917,2.38153,-0.278319,-2.10395
1582297466954053,2.38153,-0.278319,-2.10395
1582297466973994,2.38153,-0.278319,-2.10395
1582297466995797,2.38157,-0.278214,-2.10397
1582297467021692,2.38157,-0.278214,-2.10397
1582297467033828,2.38157,-0.278214,-2.10397
1582297467055809,2.38149,-0.278162,-2.104
1582297467074233,2.38157,-0.278214,-2.10397
1582297467093644,2.38169,-0.278252,-2.10412
1582297467116621,2.38169,-0.278252,-2.10412
1582297467133451,2.38169,-0.278252,-2.10412
1582297467153391,2.38169,-0.278252,-2.10412
1582297467176421,2.38157,-0.278214,-2.10397
1582297467194319,2.38157,-0.278214,-2.10397
1582297467213394,2.38157,-0.278214,-2.10397
1582297467236110,2.38157,-0.278214,-2.10397
1582297467254312,2.38149,-0.278162,-2.104
1582297467275010,2.38145,-0.278267,-2.10399
1582297467299012,2.38149,-0.278162,-2.104
1582297467313911,2.38149,-0.278162,-2.104
1582297467335057,2.38149,-0.278162,-2.104
1582297467351801,2.38149,-0.278162,-2.104
1582297467373750,2.38149,-0.278162,-2.104
1582297467394693,2.38149,-0.278162,-2.104
1582297467411817,2.38149,-0.278162,-2.104
1582297467433992,2.38149,-0.278162,-2.104
1582297467454969,2.38149,-0.278162,-2.104
1582297467471487,2.38197,-0.278169,-2.10371
1582297467494423,2.38197,-0.278169,-2.10371
1582297467515419,2.38259,-0.278244,-2.10391
1582297467531320,2.38305,-0.277897,-2.10456
1582297467553311,2.38211,-0.277676,-2.10489
1582297467575707,2.38301,-0.278001,-2.10454
1582297467590187,2.38265,-0.278709,-2.10436
1582297467613289,2.38302,-0.278562,-2.10384
1582297467636041,2.38328,-0.278451,-2.10311
1582297467650319,2.38242,-0.278391,-2.10278
1582297467673054,2.38182,-0.278381,-2.1034
1582297467695955,2.38146,-0.278077,-2.10399
1582297467710842,2.38102,-0.277704,-2.10436
1582297467732879,2.38086,-0.277545,-2.10475
1582297467755781,2.38094,-0.277598,-2.10471
1582297467769683,2.38149,-0.277657,-2.10439
1582297467792888,2.38127,-0.277799,-2.10387
1582297467815729,2.3814,-0.277856,-2.10322
1582297467830018,2.38136,-0.277699,-2.10328
1582297467853459,2.38149,-0.277791,-2.10312
1582297467875407,2.37937,-0.277419,-2.10335
1582297467890363,2.38011,-0.277458,-2.10376
1582297467913300,2.37917,-0.277554,-2.10372
1582297467935505,2.3803,-0.277287,-2.10395
1582297467950402,2.38081,-0.277378,-2.10367
1582297467973426,2.3807,-0.277431,-2.10369
1582297467996078,2.38113,-0.27747,-2.10346
1582297468017215,2.38109,-0.277575,-2.10344
1582297468032985,2.38109,-0.277575,-2.10344
1582297468055916,2.38109,-0.277575,-2.10344
1582297468077373,2.38109,-0.277575,-2.10344
1582297468092876,2.38062,-0.277361,-2.10349
1582297468115806,2.38062,-0.277361,-2.10349
1582297468136786,2.38105,-0.277418,-2.10349
1582297468152659,2.38125,-0.27749,-2.10337
1582297468175600,2.38125,-0.27749,-2.10337
1582297468196708,2.38125,-0.27749,-2.10337
1582297468213495,2.38125,-0.27749,-2.10337
1582297468235437,2.38125,-0.27749,-2.10337
1582297468256531,2.38125,-0.27749,-2.10337
1582297468273344,2.38125,-0.27749,-2.10337
1582297468295324,2.38125,-0.27749,-2.10337
1582297468317281,2.38207,-0.277447,-2.10343
1582297468333238,2.38258,-0.277557,-2.1034
1582297468356116,2.38258,-0.277557,-2.1034
1582297468377323,2.38254,-0.277661,-2.10339
1582297468393027,2.38234,-0.277572,-2.10327
1582297468416000,2.38247,-0.277609,-2.10342
1582297468436902,2.38309,-0.277666,-2.10337
1582297468452859,2.38293,-0.277751,-2.10345
1582297468475802,2.38293,-0.277751,-2.10345
1582297468496953,2.38254,-0.277661,-2.10339
1582297468512764,2.38254,-0.277661,-2.10339
1582297468535946,2.38254,-0.277661,-2.10339
1582297468558575,2.38258,-0.277557,-2.1034
1582297468573532,2.38258,-0.277557,-2.1034
1582297468595755,2.38258,-0.277557,-2.1034
1582297468618413,2.38285,-0.277681,-2.10324
1582297468633422,2.38285,-0.277681,-2.10324
1582297468655373,2.38337,-0.277601,-2.10321
1582297468685646,2.38317,-0.277512,-2.10309
1582297468692225,2.38313,-0.277616,-2.10308
1582297468715375,2.3829,-0.277649,-2.10319
1582297468738105,2.38297,-0.277701,-2.10315
1582297468752062,2.3829,-0.277649,-2.10319
1582297468775991,2.38325,-0.277636,-2.10299
1582297468798961,2.38321,-0.277741,-2.10297
1582297468812891,2.38321,-0.277741,-2.10297
1582297468835837,2.38321,-0.277741,-2.10297
1582297468858178,2.38341,-0.277813,-2.10284
1582297468872731,2.38345,-0.277709,-2.10286
1582297468895731,2.38345,-0.277709,-2.10286
1582297468917673,2.38404,-0.277681,-2.10279
1582297468932572,2.38446,-0.277928,-2.1028
1582297468955577,2.38486,-0.27809,-2.10279
1582297468978508,2.38514,-0.278026,-2.10263
1582297468992454,2.38533,-0.278098,-2.1025
1582297469015399,2.38533,-0.278098,-2.1025
1582297469038296,2.38533,-0.278098,-2.1025
1582297469059289,2.38533,-0.278098,-2.1025
1582297469075239,2.38537,-0.278238,-2.10221
1582297469098131,2.386,-0.278386,-2.10233
1582297469119072,2.386,-0.278386,-2.10233
1582297469136026,2.38592,-0.278333,-2.10237
1582297469157980,2.38631,-0.278423,-2.10243
1582297469179258,2.38631,-0.278423,-2.10243
1582297469195912,2.38685,-0.278617,-2.10242
1582297469217817,2.38685,-0.278617,-2.10242
1582297469239300,2.38717,-0.278727,-2.10244
1582297469255713,2.38705,-0.27869,-2.10229
1582297469277863,2.38768,-0.278838,-2.10241
1582297469299752,2.38768,-0.278838,-2.10241
1582297469315549,2.38768,-0.278838,-2.10241
1582297469338487,2.38768,-0.278838,-2.10241
1582297469359489,2.38768,-0.278838,-2.10241
1582297469375436,2.38759,-0.278974,-2.10245
1582297469398395,2.38759,-0.278974,-2.10245
1582297469419291,2.38759,-0.278974,-2.10245
1582297469435411,2.38759,-0.278974,-2.10245
1582297469458173,2.38752,-0.278922,-2.10249
1582297469480309,2.38752,-0.278922,-2.10249
1582297469496064,2.3874,-0.278885,-2.10233
1582297469525996,2.3874,-0.278885,-2.10233
1582297469540943,2.38724,-0.27878,-2.10241
1582297469555911,2.38724,-0.27878,-2.10241
1582297469577847,2.38724,-0.27878,-2.10241
1582297469600835,2.38724,-0.27878,-2.10241
1582297469614754,2.38724,-0.27878,-2.10241
1582297469637756,2.38724,-0.27878,-2.10241
1582297469660628,2.38724,-0.27878,-2.10241
1582297469674634,2.38717,-0.278727,-2.10244
1582297469698523,2.38724,-0.27878,-2.10241
1582297469720523,2.38724,-0.27878,-2.10241
1582297469735423,2.38717,-0.278727,-2.10244
1582297469758365,2.38752,-0.278716,-2.10224
1582297469795700,2.38752,-0.278716,-2.10224
1582297469798262,2.38752,-0.278716,-2.10224
1582297469818293,2.38745,-0.278663,-2.10228
1582297469840334,2.38745,-0.278663,-2.10228
1582297469855102,2.38745,-0.278663,-2.10228
1582297469878041,2.38745,-0.278663,-2.10228
1582297469900985,2.38697,-0.278638,-2.10233
1582297469915029,2.3869,-0.278585,-2.10236
1582297469937883,2.3869,-0.278585,-2.10236
1582297469960826,2.3869,-0.278585,-2.10236
1582297469981929,2.3869,-0.278585,-2.10236
1582297469997782,2.3869,-0.278585,-2.10236
1582297470020668,2.3869,-0.278585,-2.10236
1582297470042003,2.38694,-0.278553,-2.10231
1582297470058559,2.38717,-0.278711,-2.1022
1582297470080757,2.38709,-0.278658,-2.10224
1582297470102267,2.38709,-0.278658,-2.10224
1582297470118545,2.38709,-0.278658,-2.10224
1582297470140350,2.38663,-0.278516,-2.10221
1582297470162283,2.38596,-0.278473,-2.10207
1582297470178306,2.38596,-0.278473,-2.10207
1582297470200225,2.38608,-0.278511,-2.10222
1582297470222132,2.38596,-0.278473,-2.10207
1582297470246059,2.38596,-0.278473,-2.10207
1582297470261018,2.38589,-0.278421,-2.10211
1582297470282154,2.38589,-0.278421,-2.10211
1582297470297933,2.38589,-0.278421,-2.10211
1582297470320858,2.38589,-0.278421,-2.10211
1582297470349267,2.38542,-0.278468,-2.10208
1582297470357907,2.38542,-0.278468,-2.10208
1582297470380747,2.38542,-0.278468,-2.10208
1582297470401783,2.38558,-0.278383,-2.10201
1582297470417608,2.38558,-0.278383,-2.10201
1582297470440544,2.38519,-0.278294,-2.10195
1582297470463476,2.38519,-0.278294,-2.10195
1582297470478435,2.38519,-0.278294,-2.10195
1582297470500669,2.38543,-0.278262,-2.10184
1582297470523376,2.38535,-0.278209,-2.10188
1582297470538276,2.38539,-0.278105,-2.10189
1582297470560362,2.38539,-0.278105,-2.10189
1582297470583218,2.38535,-0.278209,-2.10188
1582297470597438,2.38535,-0.278209,-2.10188
1582297470620058,2.38527,-0.278157,-2.10191
1582297470643001,2.38527,-0.278157,-2.10191
1582297470656962,2.38539,-0.278105,-2.10189
1582297470687920,2.38589,-0.278215,-2.10186
1582297470703021,2.38589,-0.278215,-2.10186
1582297470717807,2.38582,-0.278162,-2.1019
1582297470740773,2.38582,-0.278162,-2.1019
1582297470762896,2.38582,-0.278162,-2.1019
1582297470777641,2.38582,-0.278162,-2.1019
1582297470800575,2.38582,-0.278162,-2.1019
1582297470823515,2.38582,-0.278162,-2.1019
1582297470837540,2.38586,-0.27813,-2.10185
1582297470860421,2.3859,-0.278026,-2.10186
1582297470883418,2.38617,-0.278151,-2.1017
1582297470905299,2.38646,-0.278087,-2.10154
1582297470920496,2.38642,-0.278191,-2.10152
1582297470943507,2.38564,-0.278201,-2.1014
1582297470948385,2.38529,-0.278006,-2.10136
1582297470966859,2.38529,-0.278006,-2.10136
1582297470986349,2.38545,-0.277922,-2.10128
1582297471009021,2.38545,-0.277922,-2.10128
1582297471026370,2.38545,-0.277922,-2.10128
1582297471046120,2.38545,-0.277922,-2.10128
1582297471068854,2.3858,-0.277927,-2.10133
1582297471085023,2.386,-0.277983,-2.10096
1582297471106182,2.38589,-0.278035,-2.10098
1582297471128750,2.38553,-0.278047,-2.10118
1582297471160153,2.38561,-0.278099,-2.10114
1582297471166604,2.38553,-0.278047,-2.10118
1582297471188775,2.38608,-0.278036,-2.10092
1582297471204630,2.386,-0.277983,-2.10096
1582297471226443,2.38605,-0.277951,-2.1009
1582297471248581,2.38597,-0.277898,-2.10094
1582297471265338,2.38643,-0.278041,-2.10097
1582297471286549,2.38643,-0.278041,-2.10097
1582297471308263,2.38643,-0.278041,-2.10097
1582297471325169,2.38643,-0.278041,-2.10097
1582297471346314,2.38643,-0.278041,-2.10097
1582297471368709,2.38643,-0.278041,-2.10097
1582297471386703,2.38643,-0.278041,-2.10097
1582297471406143,2.38636,-0.277989,-2.101
1582297471431895,2.38624,-0.277951,-2.10085
1582297471446872,2.38596,-0.278088,-2.10094
1582297471465996,2.38596,-0.278088,-2.10094
1582297471489122,2.38596,-0.278088,-2.10094
1582297471506687,2.38542,-0.278082,-2.10095
1582297471525841,2.38486,-0.278004,-2.10104
1582297471548782,2.38435,-0.278083,-2.10107
1582297471566524,2.38377,-0.27792,-2.10113
1582297471586542,2.38321,-0.278104,-2.10115
1582297471609469,2.38298,-0.278136,-2.10126
1582297471626421,2.38262,-0.278131,-2.10121
1582297471646509,2.38266,-0.278026,-2.10123
1582297471668319,2.38266,-0.278026,-2.10123
1582297471686538,2.38266,-0.278026,-2.10123
1582297471706293,2.38266,-0.278026,-2.10123
1582297471736073,2.38271,-0.277994,-2.10117
1582297471746051,2.38247,-0.278009,-2.10104
1582297471766430,2.38178,-0.277881,-2.10089
1582297471790928,2.38115,-0.277751,-2.10101
1582297471806421,2.38073,-0.277504,-2.101
1582297471826062,2.38026,-0.27729,-2.10105
1582297471848966,2.3799,-0.277285,-2.101
1582297471866726,2.3799,-0.277285,-2.101
1582297471885729,2.38046,-0.277173,-2.10092
1582297471908999,2.38042,-0.277016,-2.10097
1582297471926562,2.38062,-0.277088,-2.10085
1582297471946520,2.38062,-0.277088,-2.10085
1582297471968447,2.38054,-0.277036,-2.10088
1582297471986401,2.38054,-0.277036,-2.10088
1582297472009396,2.38062,-0.277088,-2.10085
1582297472028494,2.38062,-0.277088,-2.10085
1582297472046240,2.38054,-0.277036,-2.10088
1582297472067185,2.38042,-0.276999,-2.10073
1582297472088316,2.38042,-0.276999,-2.10073
1582297472106087,2.38054,-0.277036,-2.10088
1582297472127233,2.38058,-0.276932,-2.1009
1582297472149087,2.38058,-0.276932,-2.1009
1582297472165988,2.38058,-0.276932,-2.1009
1582297472187861,2.38058,-0.276932,-2.1009
1582297472208983,2.38066,-0.276984,-2.10086
1582297472226770,2.38066,-0.276984,-2.10086
1582297472247752,2.38061,-0.277016,-2.10092
1582297472268753,2.38058,-0.276932,-2.1009
1582297472292613,2.38058,-0.276932,-2.1009
1582297472307750,2.38026,-0.277101,-2.10105
1582297472328484,2.37987,-0.276939,-2.10106
1582297472346693,2.37987,-0.276939,-2.10106
1582297472368377,2.37987,-0.276939,-2.10106
1582297472388736,2.37987,-0.276939,-2.10106
1582297472406287,2.37987,-0.276939,-2.10106
1582297472429223,2.37987,-0.276939,-2.10106
1582297472448581,2.37991,-0.276834,-2.10107
1582297472466277,2.37991,-0.276834,-2.10107
1582297472489061,2.38035,-0.276702,-2.10108
1582297472509007,2.38035,-0.276702,-2.10108
1582297472526878,2.38042,-0.276755,-2.10104
1582297472549338,2.38063,-0.276638,-2.10092
1582297472569842,2.38082,-0.27671,-2.10079
1582297472585813,2.38082,-0.27671,-2.10079
1582297472607888,2.38082,-0.27671,-2.10079
1582297472629738,2.38044,-0.276359,-2.1008
1582297472645708,2.38044,-0.276359,-2.1008
1582297472667641,2.38044,-0.276359,-2.1008
1582297472689743,2.38044,-0.276359,-2.1008
1582297472705745,2.38044,-0.276359,-2.1008
1582297472728464,2.38044,-0.276359,-2.1008
1582297472749571,2.38044,-0.276359,-2.1008
1582297472765377,2.38036,-0.276306,-2.10084
1582297472788536,2.38036,-0.276306,-2.10084
1582297472802221,2.37996,-0.276334,-2.10085
1582297472825205,2.38001,-0.276301,-2.1008
1582297472849110,2.38017,-0.276234,-2.10097
1582297472869061,2.38001,-0.276301,-2.1008
1582297472886013,2.37993,-0.276249,-2.10083
1582297472907989,2.37993,-0.276249,-2.10083
1582297472929878,2.37993,-0.276249,-2.10083
1582297472945840,2.37989,-0.276281,-2.10089
1582297472967905,2.37989,-0.276281,-2.10089
1582297472989719,2.37989,-0.276281,-2.10089
1582297473005737,2.37989,-0.276281,-2.10089
1582297473028613,2.37981,-0.276229,-2.10092
1582297473049727,2.37977,-0.276333,-2.10091
1582297473065516,2.37977,-0.276333,-2.10091
1582297473088751,2.37977,-0.276333,-2.10091
1582297473109829,2.37977,-0.276333,-2.10091
1582297473125356,2.37977,-0.276333,-2.10091
1582297473148355,2.37965,-0.276296,-2.10075
1582297473169596,2.37958,-0.276244,-2.10079
1582297473185342,2.37958,-0.276244,-2.10079
1582297473208194,2.37977,-0.276316,-2.10066
1582297473229576,2.3797,-0.276264,-2.1007
1582297473246036,2.3797,-0.276264,-2.1007
1582297473268172,2.37974,-0.276159,-2.10072
1582297473290110,2.37978,-0.276127,-2.10066
1582297473305879,2.3797,-0.276264,-2.1007
1582297473328125,2.37974,-0.276231,-2.10065
1582297473350763,2.37971,-0.276074,-2.1007
1582297473366115,2.37978,-0.276127,-2.10066
1582297473388100,2.38026,-0.275945,-2.10037
1582297473410596,2.38039,-0.275497,-2.10011
1582297473424590,2.37979,-0.275043,-2.09992
1582297473448510,2.37906,-0.274741,-2.09958
1582297473470440,2.37818,-0.274352,-2.09955
1582297473484397,2.37798,-0.274262,-2.09944
1582297473508337,2.3779,-0.27421,-2.09947
1582297473530275,2.37731,-0.274426,-2.09954
1582297473545233,2.37726,-0.274476,-2.09984
1582297473568168,2.37703,-0.274247,-2.10002
1582297473590260,2.37683,-0.274157,-2.0999
1582297473605127,2.37683,-0.274157,-2.0999
1582297473628050,2.37646,-0.273878,-2.09985
1582297473650954,2.37603,-0.273353,-2.09967
1582297473664913,2.37603,-0.273353,-2.09967
1582297473687896,2.37632,-0.273359,-2.09944
1582297473710787,2.37538,-0.273642,-2.09939
1582297473724751,2.37432,-0.273959,-2.09913
1582297473747778,2.374,-0.274111,-2.09903
1582297473770691,2.37435,-0.274566,-2.099
1582297473791903,2.37493,-0.275007,-2.0991
1582297473808525,2.37477,-0.275074,-2.09893
1582297473830467,2.37409,-0.275428,-2.09904
1582297473851415,2.37405,-0.275271,-2.09909
1582297473868557,2.3741,-0.275238,-2.09904
1582297473890316,2.37305,-0.274862,-2.09916
1582297473912305,2.37176,-0.274898,-2.09939
1582297473928211,2.37034,-0.275175,-2.09964
1582297473957265,2.36955,-0.275392,-2.09977
1582297473972088,2.36955,-0.275392,-2.09977
1582297473988450,2.3701,-0.275658,-2.09968
1582297474010995,2.37092,-0.275858,-2.09943
1582297474032136,2.37092,-0.275858,-2.09943
1582297474047886,2.37134,-0.276105,-2.09943
1582297474070883,2.37219,-0.276409,-2.09943
1582297474091823,2.37289,-0.276347,-2.09959
1582297474108340,2.37289,-0.276347,-2.09959
1582297474130922,2.37242,-0.276133,-2.09964
1582297474151771,2.37181,-0.275815,-2.09976
1582297474167571,2.37104,-0.275374,-2.09972
1582297474190513,2.37046,-0.274934,-2.09962
1582297474213506,2.37038,-0.274881,-2.09966
1582297474234386,2.37066,-0.275284,-2.09967
1582297474250345,2.37069,-0.27518,-2.09968
1582297474273341,2.37052,-0.275644,-2.09975
1582297474288485,2.37035,-0.275936,-2.10007
1582297474310356,2.36999,-0.276139,-2.10027
1582297474333124,2.36931,-0.276252,-2.10069
1582297474348081,2.36884,-0.276246,-2.10098
1582297474371021,2.36854,-0.276449,-2.10146
1582297474392968,2.36842,-0.276449,-2.10179
1582297474407104,2.36842,-0.276449,-2.10179
1582297474430916,2.36842,-0.276396,-2.10211
1582297474453031,2.36842,-0.276396,-2.10211
1582297474467764,2.36857,-0.276519,-2.10228
1582297474490708,2.36849,-0.276467,-2.10231
1582297474512836,2.36853,-0.276363,-2.10233
1582297474527656,2.36853,-0.276363,-2.10233
1582297474550541,2.36858,-0.276329,-2.10228
1582297474573490,2.36938,-0.276162,-2.10272
1582297474587499,2.37036,-0.275772,-2.10278
1582297474610382,2.37044,-0.275635,-2.10275
1582297474633319,2.37142,-0.275246,-2.10281
1582297474647286,2.37218,-0.274942,-2.10266
1582297474670346,2.37269,-0.274844,-2.10239
1582297474693202,2.37265,-0.274948,-2.10237
1582297474714307,2.37238,-0.275067,-2.10222
1582297474731058,2.37218,-0.274977,-2.1021
1582297474753003,2.37151,-0.275422,-2.10238
1582297474774084,2.37118,-0.275729,-2.10284
1582297474791216,2.37097,-0.275794,-2.10329
1582297474812837,2.37053,-0.275893,-2.10384
1582297474833976,2.37065,-0.275912,-2.10375
1582297474850744,2.37123,-0.27609,-2.10392
1582297474872743,2.3713,-0.276142,-2.10388
1582297474894620,2.37123,-0.27609,-2.10392
1582297474910576,2.37111,-0.276053,-2.10377
1582297474933526,2.37103,-0.276001,-2.1038
1582297474954647,2.37078,-0.276431,-2.10416
1582297474970420,2.37039,-0.276218,-2.10448
1582297474993425,2.37062,-0.276203,-2.10462
1582297475014527,2.3724,-0.276408,-2.10466
1582297475030562,2.37486,-0.276447,-2.10461
1582297475053203,2.37648,-0.276257,-2.10448
1582297475074139,2.37727,-0.275903,-2.10404
1582297475091107,2.37773,-0.275618,-2.10349
1582297475113159,2.37789,-0.275326,-2.10317
1582297475133979,2.37795,-0.275086,-2.10287
1582297475150935,2.37795,-0.274897,-2.10287
1582297475172880,2.37788,-0.274845,-2.10291
1582297475195983,2.37795,-0.274897,-2.10287
1582297475210999,2.37799,-0.274793,-2.10289
1582297475232781,2.37858,-0.274765,-2.10282
1582297475255792,2.37912,-0.275031,-2.10274
1582297475270613,2.37952,-0.275175,-2.10248
1582297475293561,2.37955,-0.27507,-2.1025
1582297475315757,2.3799,-0.275526,-2.10247
1582297475330455,2.3799,-0.275526,-2.10247
1582297475353392,2.37983,-0.275473,-2.10251
1582297475383361,2.3799,-0.275526,-2.10247
1582297475390294,2.37994,-0.275421,-2.10249
1582297475413520,2.38103,-0.27571,-2.10263
1582297475435358,2.3815,-0.275924,-2.10258
1582297475450144,2.38247,-0.276247,-2.1025
1582297475473133,2.38333,-0.276345,-2.10227
1582297475496018,2.38392,-0.276507,-2.10221
1582297475510047,2.38479,-0.276677,-2.10191
1582297475532926,2.38518,-0.276823,-2.10165
1582297475555850,2.38511,-0.27677,-2.10169
1582297475569816,2.38511,-0.27677,-2.10169
1582297475593047,2.38511,-0.27677,-2.10169
1582297475622732,2.38507,-0.276875,-2.10167
1582297475629654,2.38507,-0.276875,-2.10167
1582297475653589,2.38511,-0.27677,-2.10169
1582297475675862,2.38511,-0.27677,-2.10169
1582297475696948,2.3857,-0.276744,-2.10162
1582297475713500,2.38601,-0.276575,-2.10148
1582297475735372,2.38637,-0.27658,-2.10152
1582297475756364,2.38617,-0.276491,-2.1014
1582297475773274,2.38617,-0.276491,-2.1014
1582297475796366,2.38594,-0.276523,-2.10151
1582297475817155,2.38594,-0.276523,-2.10151
1582297475833125,2.38629,-0.276717,-2.10156
1582297475856047,2.38632,-0.276612,-2.10157
1582297475877197,2.38629,-0.276717,-2.10156
1582297475899140,2.38629,-0.276717,-2.10156
1582297475915898,2.38621,-0.276665,-2.10159
1582297475937257,2.38609,-0.276627,-2.10144
1582297475952796,2.38554,-0.276811,-2.10145
1582297475975730,2.38554,-0.276811,-2.10145
1582297475989132,2.38554,-0.276811,-2.10145
1582297476003793,2.38554,-0.276811,-2.10145
1582297476018891,2.38546,-0.276759,-2.10149
1582297476041556,2.38499,-0.276805,-2.10147
1582297476063697,2.38499,-0.276805,-2.10147
1582297476078947,2.38495,-0.276648,-2.10152
1582297476101391,2.38495,-0.276648,-2.10152
1582297476123388,2.38495,-0.276648,-2.10152
1582297476138343,2.38495,-0.276648,-2.10152
1582297476161432,2.38495,-0.276648,-2.10152
1582297476183180,2.38515,-0.276721,-2.10139
1582297476198132,2.38542,-0.276846,-2.10123
1582297476221322,2.38535,-0.276794,-2.10127
1582297476243056,2.38511,-0.276826,-2.10138
1582297476257971,2.38511,-0.276826,-2.10138
1582297476280917,2.38511,-0.276826,-2.10138
1582297476303853,2.38519,-0.276878,-2.10134
1582297476318816,2.38511,-0.276826,-2.10138
1582297476340867,2.3852,-0.276672,-2.1011
1582297476363694,2.38544,-0.276713,-2.10092
1582297476378689,2.38544,-0.276713,-2.10092
1582297476400593,2.38556,-0.276733,-2.10083
1582297476418881,2.38548,-0.27668,-2.10087
1582297476438491,2.38548,-0.27668,-2.10087
1582297476461741,2.38552,-0.276576,-2.10088
1582297476478382,2.38557,-0.276544,-2.10083
1582297476498827,2.38607,-0.276654,-2.1008
1582297476521665,2.38595,-0.276617,-2.10065
1582297476539225,2.38588,-0.276564,-2.10068
1582297476558430,2.38588,-0.276564,-2.10068
1582297476581314,2.38588,-0.276564,-2.10068
1582297476599066,2.38588,-0.276564,-2.10068
1582297476619068,2.38588,-0.276564,-2.10068
1582297476641290,2.3858,-0.276512,-2.10072
1582297476658911,2.38631,-0.276622,-2.10069
1582297476679043,2.38623,-0.27657,-2.10073
1582297476700943,2.38623,-0.27657,-2.10073
1582297476718746,2.38651,-0.276695,-2.10056
1582297476739684,2.38651,-0.276695,-2.10056
1582297476761053,2.38651,-0.276695,-2.10056
1582297476778649,2.38651,-0.276695,-2.10056
1582297476799533,2.38717,-0.276738,-2.1007
1582297476821588,2.38717,-0.276738,-2.1007
1582297476838681,2.38717,-0.276738,-2.1007
1582297476860367,2.38721,-0.276634,-2.10072
1582297476881454,2.38792,-0.276834,-2.10081
1582297476899259,2.38834,-0.277081,-2.10082
1582297476920200,2.38822,-0.277044,-2.10066
1582297476941328,2.38834,-0.277081,-2.10082
1582297476959104,2.38838,-0.276977,-2.10083
1582297476981417,2.38838,-0.276977,-2.10083
1582297477009057,2.38838,-0.276977,-2.10083
1582297477018938,2.38838,-0.276977,-2.10083
1582297477039884,2.38842,-0.276945,-2.10078
1582297477063974,2.38835,-0.276892,-2.10082
1582297477078832,2.38835,-0.276892,-2.10082
1582297477101719,2.38861,-0.276945,-2.10072
1582297477121716,2.38861,-0.276945,-2.10072
1582297477138621,2.38854,-0.276892,-2.10076
1582297477161647,2.38835,-0.276892,-2.10082
1582297477181601,2.38846,-0.27684,-2.1008
1582297477198918,2.38873,-0.276982,-2.10088
1582297477221784,2.38865,-0.277102,-2.10067
1582297477241348,2.38869,-0.276998,-2.10069
1582297477259292,2.38869,-0.276998,-2.10069
1582297477281337,2.38865,-0.277102,-2.10067
1582297477301183,2.38865,-0.277102,-2.10067
1582297477319204,2.38858,-0.27705,-2.10071
1582297477349051,2.38858,-0.27705,-2.10071
1582297477364079,2.38866,-0.276913,-2.10067
1582297477378974,2.38866,-0.276913,-2.10067
1582297477400917,2.38866,-0.276913,-2.10067
1582297477421064,2.38866,-0.276913,-2.10067
1582297477439299,2.38866,-0.276913,-2.10067
1582297477461773,2.38866,-0.276913,-2.10067
1582297477480899,2.38858,-0.27686,-2.10071
1582297477498659,2.38858,-0.27686,-2.10071
1582297477521878,2.38858,-0.27686,-2.10071
1582297477541542,2.38858,-0.27686,-2.10071
1582297477566484,2.38858,-0.27686,-2.10071
1582297477581433,2.38858,-0.27686,-2.10071
1582297477601445,2.38929,-0.276799,-2.10086
1582297477618357,2.38967,-0.276889,-2.10093
1582297477640275,2.38967,-0.276889,-2.10093
1582297477662263,2.38967,-0.276889,-2.10093
1582297477678224,2.38967,-0.276889,-2.10093
1582297477700246,2.38967,-0.276889,-2.10093
1582297477722106,2.38967,-0.276889,-2.10093
1582297477738018,2.38967,-0.276889,-2.10093
1582297477767931,2.38967,-0.276889,-2.10093
1582297477781944,2.38967,-0.276889,-2.10093
1582297477798015,2.3896,-0.276837,-2.10096
1582297477820797,2.38948,-0.276799,-2.10081
1582297477841943,2.38948,-0.276799,-2.10081
1582297477858112,2.38901,-0.276863,-2.10103
1582297477880695,2.38845,-0.276784,-2.10111
1582297477901638,2.38845,-0.276784,-2.10111
1582297477917590,2.38845,-0.276784,-2.10111
1582297477940471,2.38845,-0.276784,-2.10111
1582297477969579,2.38845,-0.276784,-2.10111
1582297477978377,2.38845,-0.276784,-2.10111
1582297478000309,2.3885,-0.276752,-2.10106
1582297478023255,2.3885,-0.276752,-2.10106
1582297478038209,2.38838,-0.276715,-2.1009
1582297478060324,2.38826,-0.276694,-2.10099
1582297478083089,2.38826,-0.276694,-2.10099
1582297478098063,2.38826,-0.276694,-2.10099
1582297478120987,2.38764,-0.276636,-2.10104
1582297478142933,2.38764,-0.276636,-2.10104
1582297478157891,2.3872,-0.276578,-2.10103
1582297478180884,2.38669,-0.276657,-2.10106
1582297478202831,2.38669,-0.276657,-2.10106
1582297478217727,2.38669,-0.276657,-2.10106
1582297478241012,2.38661,-0.276604,-2.1011
1582297478262760,2.38607,-0.276598,-2.10111
1582297478277630,2.3854,-0.276572,-2.10121
1582297478300513,2.38528,-0.276535,-2.10106
1582297478323463,2.38528,-0.276535,-2.10106
1582297478337418,2.38528,-0.276535,-2.10106
1582297478360352,2.38528,-0.276535,-2.10106
1582297478383522,2.38528,-0.276535,-2.10106
1582297478397496,2.3852,-0.276483,-2.1011
1582297478420187,2.3852,-0.276483,-2.1011
1582297478443380,2.3852,-0.276483,-2.1011
1582297478457409,2.3847,-0.276634,-2.10106
1582297478480210,2.38422,-0.276609,-2.1011
1582297478502968,2.38383,-0.276463,-2.10136
1582297478523964,2.38383,-0.276463,-2.10136
1582297478540870,2.38383,-0.276463,-2.10136
1582297478563154,2.38386,-0.276359,-2.10137
1582297478584748,2.38386,-0.276359,-2.10137
1582297478600707,2.38386,-0.276359,-2.10137
1582297478622982,2.38379,-0.276306,-2.10141
1582297478644591,2.38383,-0.276274,-2.10136
1582297478660828,2.38375,-0.276411,-2.10139
1582297478683492,2.38372,-0.276326,-2.10138
1582297478704829,2.38375,-0.276411,-2.10139
1582297478720392,2.38383,-0.276274,-2.10136
1582297478743385,2.38372,-0.276326,-2.10138
1582297478764497,2.38355,-0.276321,-2.10128
1582297478780347,2.38355,-0.276321,-2.10128
1582297478803170,2.38355,-0.276321,-2.10128
1582297478824254,2.38348,-0.276269,-2.10131
1582297478841064,2.38352,-0.276237,-2.10126
1582297478863044,2.38352,-0.276237,-2.10126
1582297478884012,2.38352,-0.276237,-2.10126
1582297478900906,2.38348,-0.276269,-2.10131
1582297478922848,2.38352,-0.276237,-2.10126
1582297478951765,2.38348,-0.276269,-2.10131
1582297478960806,2.38333,-0.276147,-2.10114
1582297478983131,2.38333,-0.276147,-2.10114
1582297479005677,2.38333,-0.276147,-2.10114
1582297479020639,2.38333,-0.276147,-2.10114
1582297479043527,2.3838,-0.276117,-2.10141
1582297479065461,2.38411,-0.276138,-2.10126
1582297479080428,2.38411,-0.276138,-2.10126
1582297479103359,2.38411,-0.276138,-2.10126
1582297479125381,2.38458,-0.276163,-2.10122
1582297479140260,2.38494,-0.276152,-2.10102
1582297479163262,2.38529,-0.276157,-2.10106
1582297479185194,2.38529,-0.276157,-2.10106
1582297479200105,2.38533,-0.276052,-2.10108
1582297479229215,2.38557,-0.276021,-2.10097
1582297479245981,2.38616,-0.275994,-2.1009
1582297479259983,2.38675,-0.27623,-2.10077
1582297479282888,2.38714,-0.276375,-2.10051
1582297479305830,2.38703,-0.276427,-2.10053
1582297479319786,2.38691,-0.27639,-2.10038
1582297479342873,2.38703,-0.276427,-2.10053
1582297479365715,2.38691,-0.27639,-2.10038
1582297479379629,2.38703,-0.276427,-2.10053
1582297479403555,2.38734,-0.276448,-2.10039
1582297479425542,2.38739,-0.276416,-2.10033
1582297479439550,2.38766,-0.276542,-2.10017
1582297479463457,2.38817,-0.276653,-2.10014
1582297479485336,2.38852,-0.276658,-2.10019
1582297479508341,2.38833,-0.276569,-2.10007
1582297479523236,2.38833,-0.276569,-2.10007
1582297479545341,2.38833,-0.276569,-2.10007
1582297479567124,2.38833,-0.276569,-2.10007
1582297479583249,2.38833,-0.276569,-2.10007
1582297479606016,2.38833,-0.276569,-2.10007
1582297479627179,2.38833,-0.276569,-2.10007
1582297479643236,2.38833,-0.276569,-2.10007
1582297479665855,2.38833,-0.276569,-2.10007
1582297479686942,2.38833,-0.276569,-2.10007
1582297479702816,2.38833,-0.276569,-2.10007
1582297479725753,2.38833,-0.276569,-2.10007
1582297479747163,2.38833,-0.276569,-2.10007
1582297479763592,2.38833,-0.276569,-2.10007
1582297479785538,2.38833,-0.276569,-2.10007
1582297479806533,2.38833,-0.276569,-2.10007
1582297479823446,2.38833,-0.276569,-2.10007
1582297479845627,2.38833,-0.276569,-2.10007
1582297479866317,2.38833,-0.276569,-2.10007
1582297479883279,2.38833,-0.276569,-2.10007
1582297479905276,2.38833,-0.276569,-2.10007
1582297479928211,2.38833,-0.276569,-2.10007
1582297479943443,2.38833,-0.276569,-2.10007
1582297479965378,2.38774,-0.276594,-2.10014
1582297479987997,2.38774,-0.276594,-2.10014
1582297480002959,2.38774,-0.276594,-2.10014
1582297480025900,2.38777,-0.27649,-2.10015
1582297480048373,2.38777,-0.27649,-2.10015
1582297480062816,2.38777,-0.27649,-2.10015
1582297480085736,2.38777,-0.27649,-2.10015
1582297480108099,2.38774,-0.276594,-2.10014
1582297480122634,2.38774,-0.276594,-2.10014
1582297480145627,2.38774,-0.276594,-2.10014
1582297480167724,2.38774,-0.276594,-2.10014
1582297480182483,2.38774,-0.276594,-2.10014
1582297480205858,2.38774,-0.276594,-2.10014
1582297480235390,2.38774,-0.276594,-2.10014
1582297480242313,2.38774,-0.276594,-2.10014
1582297480265250,2.38774,-0.276594,-2.10014
1582297480288236,2.3877,-0.276699,-2.10012
1582297480302150,2.3877,-0.276699,-2.10012
1582297480325291,2.3877,-0.276699,-2.10012
1582297480348077,2.38757,-0.277146,-2.10038
1582297480361997,2.38716,-0.27764,-2.10057
1582297480385928,2.38674,-0.278323,-2.10075
1582297480407868,2.38594,-0.278934,-2.10112
1582297480429814,2.38529,-0.27965,-2.10141
1582297480445832,2.38488,-0.280613,-2.10177
1582297480467880,2.38411,-0.281381,-2.10208
1582297480488882,2.3828,-0.282073,-2.10248
1582297480505618,2.38121,-0.28283,-2.10304
1582297480528545,2.38,-0.283417,-2.10373
1582297480549553,2.37919,-0.284166,-2.10441
1582297480565453,2.37896,-0.285077,-2.10502
1582297480588407,2.37859,-0.285884,-2.10571
1582297480616397,2.37869,-0.286716,-2.10636
1582297480625345,2.3783,-0.287713,-2.10705
1582297480648230,2.37785,-0.288659,-2.10777
1582297480670167,2.37771,-0.289172,-2.10843
1582297480685323,2.37757,-0.289758,-2.10901
1582297480708075,2.3774,-0.290449,-2.10957
1582297480729220,2.37715,-0.291467,-2.11018
1582297480745963,2.37689,-0.292224,-2.11085
1582297480767908,2.37672,-0.292916,-2.11142
1582297480789316,2.37655,-0.293346,-2.11205
1582297480805860,2.37709,-0.293692,-2.1126
1582297480827807,2.3779,-0.294043,-2.11292
1582297480850749,2.37821,-0.294476,-2.11327
1582297480865654,2.37821,-0.294476,-2.11327
1582297480895867,2.37821,-0.294476,-2.11327
1582297480910530,2.37821,-0.294476,-2.11327
1582297480925679,2.37828,-0.294528,-2.11323
1582297480948437,2.37828,-0.294528,-2.11323
1582297480970413,2.37841,-0.294566,-2.11339
1582297480976645,2.37828,-0.294528,-2.11323
1582297480991532,2.37825,-0.294633,-2.11322
1582297481013733,2.37837,-0.294672,-2.11337
1582297481036322,2.37758,-0.294802,-2.11332
1582297481051525,2.37688,-0.294888,-2.1134
1582297481073544,2.37629,-0.294919,-2.11347
1582297481096190,2.37562,-0.294899,-2.11357
1582297481111190,2.37562,-0.294899,-2.11357
1582297481133926,2.37566,-0.294794,-2.11358
1582297481155919,2.37562,-0.294899,-2.11357
1582297481173905,2.37515,-0.29493,-2.1133
1582297481193832,2.37539,-0.294915,-2.11343
1582297481224878,2.37606,-0.294745,-2.11333
1582297481230882,2.37629,-0.294764,-2.1129
1582297481253797,2.3765,-0.294699,-2.11246
1582297481276551,2.37645,-0.294731,-2.11252
1582297481291632,2.37681,-0.294789,-2.11225
1582297481313896,2.37681,-0.294789,-2.11225
1582297481336391,2.37603,-0.294784,-2.11188
1582297481351525,2.37576,-0.294715,-2.11172
1582297481373533,2.37573,-0.29482,-2.11171
1582297481405403,2.37576,-0.294715,-2.11172
1582297481411376,2.37623,-0.294456,-2.1115
1582297481433131,2.37639,-0.294389,-2.11167
1582297481456106,2.37698,-0.294602,-2.1113
1582297481472177,2.37726,-0.294588,-2.11082
1582297481494031,2.37785,-0.294612,-2.11044
1582297481518895,2.37844,-0.294617,-2.10982
1582297481532226,2.37841,-0.294722,-2.1098
1582297481553986,2.37727,-0.295012,-2.1098
1582297481577773,2.37579,-0.295037,-2.10983
1582297481592700,2.3743,-0.295061,-2.10986
1582297481614085,2.37278,-0.29474,-2.10995
1582297481636582,2.37059,-0.294326,-2.1102
1582297481652555,2.36855,-0.294017,-2.11039
1582297481673754,2.36827,-0.293823,-2.11063
