timestamp,x,y,z,w
1582297428085858,-0.759094,0.461792,0.248474,-0.385803
1582297428109800,-0.768372,0.440308,0.241455,-0.396729
1582297428125998,-0.775879,0.419556,0.234558,-0.408691
1582297428146724,-0.780823,0.400391,0.227295,-0.422363
1582297428169635,-0.783142,0.382935,0.216858,-0.439392
1582297428184594,-0.783264,0.366943,0.203125,-0.458862
1582297428206619,-0.781311,0.351013,0.187988,-0.480713
1582297428252456,-0.777588,0.33844,0.167664,-0.502686
1582297428252456,-0.77002,0.328369,0.144104,-0.52771
1582297428267420,-0.758301,0.320618,0.116028,-0.555664
1582297428290487,-0.744385,0.316223,0.0831909,-0.582275
1582297428305483,-0.732056,0.316345,0.0507813,-0.601318
1582297428335339,-0.72345,0.322021,0.0203247,-0.610352
1582297428374087,-0.717712,0.335449,-0.0127563,-0.610168
1582297428374087,-0.707031,0.352051,-0.0513306,-0.611206
1582297428387088,-0.689514,0.36615,-0.0982056,-0.617188
1582297428418027,-0.667053,0.37854,-0.142029,-0.625793
1582297428424960,-0.646118,0.396973,-0.175537,-0.627869
1582297428449886,-0.646362,0.395081,-0.182007,-0.626953
1582297428469842,-0.659302,0.398499,-0.174072,-0.613403
1582297428485794,-0.662109,0.394165,-0.162354,-0.616394
1582297428508743,-0.66333,0.386536,-0.147949,-0.623474
1582297428530672,-0.661499,0.381531,-0.141479,-0.630066
1582297428545871,-0.654236,0.380798,-0.139648,-0.638367
1582297428568580,-0.646118,0.384766,-0.141968,-0.643799
1582297428590519,-0.642639,0.389343,-0.144287,-0.643921
1582297428605528,-0.643555,0.392029,-0.145508,-0.641052
1582297428628470,-0.645935,0.391907,-0.145874,-0.638733
1582297428651348,-0.646912,0.390564,-0.145935,-0.63855
1582297428665318,-0.644592,0.389954,-0.145752,-0.641235
1582297428694236,-0.642456,0.389221,-0.145203,-0.643921
1582297428711193,-0.642578,0.388733,-0.145386,-0.644104
1582297428725156,-0.642944,0.388489,-0.145691,-0.64386
1582297428751203,-0.643311,0.387756,-0.145813,-0.64386
1582297428764052,-0.643494,0.387085,-0.145691,-0.644165
1582297428784998,-0.643311,0.387329,-0.145996,-0.644104
1582297428807129,-0.645752,0.386597,-0.14447,-0.642456
1582297428821314,-0.640869,0.384155,-0.147461,-0.648132
1582297428844830,-0.637878,0.383606,-0.14978,-0.650818
1582297428867204,-0.641907,0.384583,-0.148071,-0.646667
1582297428880784,-0.648926,0.384766,-0.143921,-0.640503
1582297428904866,-0.650146,0.382935,-0.1427,-0.640625
1582297428926808,-0.644409,0.380798,-0.146423,-0.64679
1582297428941631,-0.645142,0.381653,-0.147705,-0.645325
1582297428964659,-0.645569,0.381958,-0.147705,-0.644653
1582297428987489,-0.645813,0.381836,-0.147888,-0.644409
1582297429001612,-0.646057,0.381592,-0.147827,-0.644348
1582297429024578,-0.646179,0.381287,-0.147888,-0.644409
1582297429047492,-0.646179,0.381226,-0.147827,-0.64447
1582297429061258,-0.647644,0.381714,-0.146606,-0.643005
1582297429092241,-0.643433,0.381287,-0.149719,-0.646729
1582297429107299,-0.646362,0.380737,-0.147095,-0.644714
1582297429121091,-0.64856,0.378296,-0.144531,-0.644592
1582297429145027,-0.647827,0.378174,-0.145081,-0.645264
1582297429167177,-0.647827,0.377869,-0.144897,-0.645447
1582297429181930,-0.647827,0.377869,-0.144836,-0.645447
1582297429204979,-0.647888,0.377808,-0.144836,-0.645386
1582297429226988,-0.647949,0.377808,-0.144775,-0.645386
1582297429241774,-0.647949,0.377747,-0.144714,-0.645447
1582297429265152,-0.647949,0.377747,-0.144653,-0.645447
1582297429286910,-0.647949,0.377563,-0.144348,-0.64563
1582297429301751,-0.647949,0.377502,-0.144348,-0.645691
1582297429324770,-0.647949,0.377502,-0.144287,-0.645691
1582297429347033,-0.647888,0.377319,-0.144043,-0.645935
1582297429362453,-0.647949,0.377197,-0.143616,-0.645996
1582297429385440,-0.64801,0.377136,-0.143555,-0.645996
1582297429407731,-0.64801,0.377136,-0.143494,-0.645996
1582297429422694,-0.64801,0.377075,-0.143494,-0.645996
1582297429446221,-0.64801,0.377014,-0.143127,-0.646179
1582297429467234,-0.64801,0.376953,-0.142761,-0.646301
1582297429483123,-0.648071,0.376953,-0.142395,-0.646301
1582297429506128,-0.648132,0.376953,-0.142029,-0.646301
1582297429534169,-0.648132,0.376892,-0.142029,-0.646301
1582297429543157,-0.648132,0.376953,-0.141663,-0.646362
1582297429565948,-0.648315,0.377014,-0.141479,-0.646179
1582297429587304,-0.64856,0.377014,-0.141296,-0.645996
1582297429602865,-0.648743,0.377075,-0.140808,-0.645874
1582297429625753,-0.648804,0.37738,-0.140198,-0.645813
1582297429655669,-0.648804,0.377869,-0.139404,-0.645691
1582297429670626,-0.648682,0.378723,-0.137878,-0.645691
1582297429693562,-0.648621,0.378906,-0.134155,-0.646362
1582297429715502,-0.647278,0.379395,-0.129211,-0.648438
1582297429730463,-0.65033,0.381653,-0.126282,-0.644592
1582297429753402,-0.656921,0.380859,-0.121765,-0.639282
1582297429775703,-0.664429,0.376038,-0.106323,-0.637085
1582297429804264,-0.676147,0.370056,-0.0881958,-0.630981
1582297429813908,-0.688904,0.36377,-0.0640259,-0.623718
1582297429836256,-0.700623,0.359802,-0.0331421,-0.615295
1582297429857122,-0.713745,0.35791,0.00341797,-0.602112
1582297429873079,-0.728577,0.356934,0.0455322,-0.582886
1582297429896147,-0.742859,0.357544,0.0911255,-0.558655
1582297429917964,-0.754333,0.359558,0.137207,-0.53186
1582297429932973,-0.763489,0.362244,0.182556,-0.502563
1582297429955862,-0.77002,0.363464,0.228516,-0.471985
1582297429976853,-0.774719,0.363892,0.27417,-0.438538
1582297429993755,-0.776855,0.364258,0.3172,-0.404053
1582297430015705,-0.773682,0.362427,0.359009,-0.375732
1582297430036796,-0.768982,0.357666,0.39856,-0.34906
1582297430053597,-0.763123,0.351074,0.43573,-0.323364
1582297430083515,-0.753479,0.340698,0.4729,-0.304199
1582297430097487,-0.741272,0.325317,0.509216,-0.292236
1582297430113504,-0.729675,0.309814,0.541016,-0.280884
1582297430135379,-0.71875,0.294922,0.568604,-0.270264
1582297430157317,-0.708435,0.280884,0.592529,-0.261169
1582297430173354,-0.698242,0.266785,0.613342,-0.255127
1582297430196224,-0.688599,0.254883,0.630371,-0.252136
1582297430217189,-0.680298,0.244995,0.644226,-0.24939
1582297430233506,-0.673767,0.238647,0.654419,-0.246582
1582297430256184,-0.668396,0.235168,0.661865,-0.244751
1582297430276999,-0.66394,0.232727,0.667297,-0.244446
1582297430294952,-0.660767,0.230164,0.671021,-0.245239
1582297430316029,-0.658752,0.227539,0.673401,-0.246582
1582297430336838,-0.657837,0.22583,0.674683,-0.247192
1582297430353614,-0.656494,0.225769,0.675293,-0.249023
1582297430375747,-0.658813,0.223511,0.674622,-0.246704
1582297430396681,-0.656372,0.224182,0.675537,-0.250122
1582297430413634,-0.65271,0.226868,0.675842,-0.256348
1582297430435830,-0.649292,0.229431,0.675781,-0.262878
1582297430456660,-0.650574,0.230286,0.673889,-0.263733
1582297430473769,-0.651367,0.230774,0.672607,-0.264709
1582297430495413,-0.651794,0.231567,0.671692,-0.26532
1582297430517412,-0.651917,0.232422,0.671021,-0.26593
1582297430533371,-0.652039,0.232971,0.670471,-0.266418
1582297430556254,-0.652161,0.233215,0.670105,-0.266968
1582297430578197,-0.652344,0.233215,0.669861,-0.26709
1582297430593332,-0.652405,0.233215,0.669861,-0.267029
1582297430616091,-0.652954,0.233337,0.669434,-0.266541
1582297430638233,-0.653625,0.233154,0.669067,-0.266113
1582297430652992,-0.654236,0.232849,0.668701,-0.265686
1582297430676153,-0.655029,0.232605,0.668274,-0.265076
1582297430698087,-0.656067,0.232605,0.667542,-0.264282
1582297430713032,-0.657288,0.232849,0.666565,-0.263611
1582297430735865,-0.658752,0.233215,0.665344,-0.262634
1582297430758716,-0.660339,0.233887,0.664001,-0.261475
1582297430772955,-0.661682,0.234436,0.662659,-0.261047
1582297430796017,-0.662903,0.234985,0.661194,-0.261169
1582297430801664,-0.664429,0.236023,0.659302,-0.260925
1582297430823735,-0.666016,0.237427,0.657227,-0.260864
1582297430840514,-0.667297,0.238708,0.65509,-0.261841
1582297430861591,-0.669434,0.237915,0.653625,-0.260803
1582297430883434,-0.670166,0.238281,0.652466,-0.261475
1582297430900337,-0.67511,0.239624,0.647827,-0.259094
1582297430921550,-0.673218,0.241394,0.647827,-0.262268
1582297430946764,-0.675781,0.243958,0.644409,-0.261719
1582297430959175,-0.677307,0.243591,0.643738,-0.259827
1582297430981354,-0.674866,0.247864,0.642944,-0.264038
1582297431004463,-0.679321,0.246704,0.640503,-0.259705
1582297431019076,-0.675598,0.248962,0.641785,-0.263977
1582297431041538,-0.678772,0.249756,0.639038,-0.26178
1582297431063898,-0.677795,0.249756,0.640015,-0.26178
1582297431078907,-0.676697,0.253906,0.638855,-0.26355
1582297431101075,-0.679993,0.253113,0.637268,-0.259705
1582297431124231,-0.676147,0.25708,0.637634,-0.264832
1582297431138921,-0.675354,0.257935,0.637451,-0.266602
1582297431161630,-0.675659,0.259094,0.63623,-0.267578
1582297431183776,-0.675964,0.260437,0.635254,-0.267822
1582297431200527,-0.676208,0.261963,0.634338,-0.267822
1582297431224567,-0.676392,0.263428,0.633484,-0.268005
1582297431243485,-0.676575,0.264526,0.63269,-0.268372
1582297431260371,-0.676697,0.265503,0.632019,-0.268677
1582297431281450,-0.676819,0.266479,0.631226,-0.269104
1582297431304514,-0.677002,0.267212,0.630554,-0.269592
1582297431320215,-0.677185,0.267639,0.629944,-0.270142
1582297431341339,-0.677246,0.268127,0.629456,-0.27063
1582297431364145,-0.677368,0.268677,0.628906,-0.270996
1582297431380055,-0.677551,0.268799,0.628479,-0.271423
1582297431401225,-0.677795,0.268921,0.628052,-0.271729
1582297431423993,-0.677979,0.269165,0.627686,-0.271851
1582297431440267,-0.67804,0.269165,0.627625,-0.271851
1582297431460977,-0.678345,0.269836,0.627258,-0.27124
1582297431483827,-0.678589,0.270874,0.626831,-0.270752
1582297431499792,-0.678772,0.2724,0.62616,-0.270142
1582297431521730,-0.679443,0.275452,0.624756,-0.268616
1582297431543626,-0.680664,0.281128,0.622314,-0.26532
1582297431561560,-0.681763,0.2901,0.619263,-0.259949
1582297431581702,-0.682068,0.303772,0.615601,-0.252075
1582297431603518,-0.679443,0.324036,0.611877,-0.242798
1582297431621645,-0.67572,0.349487,0.606262,-0.231689
1582297431641413,-0.67041,0.378418,0.598816,-0.220703
1582297431664345,-0.66394,0.409546,0.5896,-0.209412
1582297431681242,-0.65625,0.441406,0.578308,-0.200073
1582297431701635,-0.646729,0.4729,0.565613,-0.195374
1582297431724279,-0.636108,0.504456,0.551086,-0.192688
1582297431742401,-0.625305,0.535828,0.534302,-0.190796
1582297431761276,-0.614319,0.566589,0.514832,-0.19104
1582297431784122,-0.602112,0.594666,0.494446,-0.198181
1582297431802071,-0.588806,0.620361,0.473755,-0.209778
1582297431821867,-0.576782,0.64624,0.449768,-0.217712
1582297431843990,-0.564392,0.673218,0.423523,-0.221008
1582297431861760,-0.550781,0.697937,0.398193,-0.225708
1582297431881753,-0.537781,0.719543,0.372681,-0.232727
1582297431903863,-0.526184,0.737793,0.348877,-0.238831
1582297431922110,-0.513733,0.754395,0.328857,-0.242493
1582297431941556,-0.502563,0.770508,0.306519,-0.244507
1582297431963619,-0.494202,0.784424,0.281555,-0.247314
1582297431981591,-0.486145,0.795837,0.260193,-0.250244
1582297432002382,-0.477234,0.804321,0.247314,-0.253113
1582297432023492,-0.468445,0.810059,0.240784,-0.257507
1582297432041278,-0.461304,0.814087,0.235657,-0.26239
1582297432061754,-0.455322,0.817383,0.231873,-0.265991
1582297432084323,-0.449585,0.818542,0.234619,-0.269836
1582297432101124,-0.445801,0.819702,0.236389,-0.271057
1582297432121266,-0.44165,0.822571,0.239441,-0.266296
1582297432145009,-0.435608,0.826721,0.236328,-0.266357
1582297432161961,-0.430725,0.829407,0.235779,-0.266357
1582297432182906,-0.428955,0.832214,0.233582,-0.262329
1582297432204108,-0.426514,0.833923,0.23468,-0.259827
1582297432221803,-0.425232,0.837585,0.230286,-0.254028
1582297432242967,-0.423706,0.842102,0.222229,-0.24884
1582297432264116,-0.42157,0.846069,0.217224,-0.243469
1582297432281819,-0.417725,0.848694,0.217102,-0.240967
1582297432302581,-0.412537,0.850464,0.220581,-0.240479
1582297432331677,-0.406372,0.852234,0.22467,-0.240967
1582297432342047,-0.400818,0.854431,0.226379,-0.240967
1582297432362425,-0.395447,0.856262,0.227844,-0.241882
1582297432384553,-0.389832,0.85614,0.233765,-0.245789
1582297432400379,-0.387573,0.854431,0.239868,-0.249329
1582297432422333,-0.389343,0.853882,0.240906,-0.247498
1582297432444372,-0.392029,0.853821,0.23761,-0.246582
1582297432461155,-0.394897,0.853027,0.234985,-0.247253
1582297432485091,-0.397339,0.851929,0.233337,-0.248718
1582297432505045,-0.39917,0.850708,0.232666,-0.250671
1582297432520996,-0.400269,0.849976,0.231934,-0.252014
1582297432543404,-0.401794,0.849609,0.230042,-0.252563
1582297432557909,-0.403564,0.849182,0.228394,-0.252747
1582297432581301,-0.405334,0.848389,0.227844,-0.252991
1582297432609803,-0.406677,0.847473,0.228088,-0.253601
1582297432624770,-0.408142,0.846558,0.228394,-0.254089
1582297432640678,-0.40918,0.845642,0.229065,-0.254883
1582297432663615,-0.409912,0.844788,0.229919,-0.255859
1582297432684793,-0.41095,0.844116,0.230042,-0.256165
1582297432700519,-0.411987,0.843689,0.229492,-0.25647
1582297432723731,-0.412903,0.843262,0.229187,-0.256714
1582297432737417,-0.41333,0.842773,0.229553,-0.257202
1582297432760447,-0.413513,0.842285,0.230347,-0.257813
1582297432783335,-0.413513,0.841858,0.231384,-0.258301
1582297432804379,-0.413086,0.84137,0.233154,-0.259033
1582297432821192,-0.412781,0.84082,0.234741,-0.259827
1582297432843135,-0.413086,0.840454,0.235168,-0.260071
1582297432864217,-0.413391,0.84021,0.235107,-0.260437
1582297432880168,-0.413574,0.840088,0.234863,-0.260742
1582297432903007,-0.413879,0.839966,0.23468,-0.260864
1582297432917933,-0.414185,0.839783,0.234619,-0.260925
1582297432940916,-0.414307,0.839539,0.234985,-0.261353
1582297432963813,-0.414429,0.839294,0.235229,-0.261597
1582297432985177,-0.414673,0.839111,0.235413,-0.26178
1582297433000716,-0.414734,0.838928,0.235779,-0.261841
1582297433025651,-0.414734,0.838928,0.235779,-0.261902
1582297433040657,-0.414734,0.838928,0.235779,-0.261902
1582297433060552,-0.413757,0.839539,0.235046,-0.262085
1582297433081537,-0.413269,0.839294,0.235107,-0.263611
1582297433097600,-0.413635,0.8396,0.23468,-0.262329
1582297433120455,-0.416931,0.841064,0.233765,-0.253174
1582297433144614,-0.417786,0.840759,0.234924,-0.251831
1582297433164274,-0.415161,0.838928,0.237122,-0.259827
1582297433180300,-0.411804,0.837524,0.238098,-0.268921
1582297433201445,-0.41156,0.838196,0.237,-0.268066
1582297433218129,-0.410889,0.837708,0.238342,-0.269348
1582297433240516,-0.411133,0.837402,0.237793,-0.270447
1582297433261282,-0.41156,0.837463,0.237183,-0.270142
1582297433278131,-0.411804,0.837585,0.236694,-0.269897
1582297433298956,-0.411804,0.837585,0.236694,-0.269836
1582297433322057,-0.411865,0.837402,0.237183,-0.269958
1582297433337235,-0.414917,0.836853,0.238708,-0.265564
1582297433359800,-0.412842,0.83551,0.239502,-0.272278
1582297433381845,-0.415588,0.83606,0.240112,-0.265564
1582297433397166,-0.415344,0.835815,0.240356,-0.266724
1582297433419802,-0.415466,0.835938,0.240417,-0.266052
1582297433441588,-0.415649,0.835693,0.240662,-0.266235
1582297433457553,-0.415771,0.835571,0.240845,-0.266418
1582297433479632,-0.416077,0.835449,0.240601,-0.266479
1582297433502439,-0.416382,0.835388,0.240234,-0.266479
1582297433517644,-0.416382,0.835388,0.240234,-0.266479
1582297433539475,-0.416321,0.835388,0.240234,-0.266541
1582297433562410,-0.416199,0.835266,0.240723,-0.266785
1582297433577174,-0.416016,0.835205,0.241333,-0.266785
1582297433599373,-0.415771,0.835205,0.241821,-0.266663
1582297433622269,-0.415283,0.835144,0.242676,-0.266785
1582297433637230,-0.414734,0.835083,0.243591,-0.267029
1582297433658955,-0.414307,0.834961,0.244324,-0.267212
1582297433682037,-0.414246,0.8349,0.244751,-0.267273
1582297433698295,-0.414307,0.834778,0.244934,-0.267334
1582297433719992,-0.41449,0.834717,0.244873,-0.267334
1582297433741789,-0.414795,0.834595,0.244751,-0.267334
1582297433758684,-0.415039,0.834473,0.24469,-0.267334
1582297433779768,-0.415222,0.834351,0.24469,-0.267456
1582297433795590,-0.415222,0.834351,0.24469,-0.267456
1582297433818540,-0.415222,0.834351,0.24469,-0.267517
1582297433839668,-0.415405,0.834351,0.244446,-0.267395
1582297433855492,-0.415344,0.834351,0.244446,-0.267456
1582297433878368,-0.415161,0.83429,0.244751,-0.267639
1582297433899366,-0.414978,0.83429,0.245056,-0.267761
1582297433923516,-0.414978,0.83429,0.245056,-0.267761
1582297433946189,-0.414978,0.834351,0.244934,-0.2677
1582297433967184,-0.414978,0.834351,0.244934,-0.2677
1582297433983083,-0.414673,0.834351,0.245178,-0.267883
1582297434006086,-0.414368,0.834473,0.245422,-0.267883
1582297434027029,-0.414124,0.834534,0.245544,-0.267822
1582297434043389,-0.414124,0.834534,0.245544,-0.267822
1582297434066283,-0.414124,0.834534,0.245483,-0.267822
1582297434086808,-0.414124,0.834534,0.245483,-0.267822
1582297434103772,-0.41394,0.834656,0.245605,-0.267761
1582297434125700,-0.41394,0.834778,0.245361,-0.267639
1582297434146833,-0.41394,0.834778,0.245361,-0.267639
1582297434163604,-0.413879,0.834839,0.245239,-0.267517
1582297434185897,-0.413879,0.8349,0.245239,-0.267456
1582297434207490,-0.413879,0.8349,0.245239,-0.267456
1582297434223765,-0.413879,0.8349,0.245178,-0.267456
1582297434245581,-0.413879,0.8349,0.245178,-0.267517
1582297434266328,-0.413696,0.8349,0.245361,-0.267578
1582297434283284,-0.413696,0.8349,0.2453,-0.267578
1582297434306218,-0.413696,0.8349,0.2453,-0.267578
1582297434327209,-0.413574,0.8349,0.245544,-0.267639
1582297434343237,-0.413574,0.8349,0.245483,-0.267578
1582297434366058,-0.413574,0.8349,0.245544,-0.267639
1582297434388097,-0.413513,0.834839,0.245728,-0.267761
1582297434403014,-0.413513,0.834839,0.245667,-0.267761
1582297434425901,-0.413513,0.834839,0.245667,-0.267822
1582297434448023,-0.413391,0.834778,0.246033,-0.267883
1582297434469924,-0.41333,0.834717,0.246155,-0.267883
1582297434485917,-0.41333,0.834717,0.246155,-0.267944
1582297434508678,-0.41333,0.834717,0.246155,-0.267944
1582297434523635,-0.413269,0.834717,0.246155,-0.267944
1582297434553557,-0.413208,0.834656,0.246399,-0.268127
1582297434568523,-0.413147,0.834595,0.246582,-0.268188
1582297434582484,-0.413086,0.834595,0.246826,-0.268188
1582297434613402,-0.413086,0.834595,0.246826,-0.268188
1582297434628517,-0.413025,0.834595,0.246826,-0.268188
1582297434642425,-0.413025,0.834595,0.246826,-0.268188
1582297434666256,-0.413025,0.834595,0.246826,-0.268188
1582297434688202,-0.413025,0.834595,0.246826,-0.268188
1582297434703156,-0.413025,0.834595,0.246826,-0.268188
1582297434726100,-0.413025,0.834534,0.246826,-0.268188
1582297434748037,-0.413025,0.834534,0.246887,-0.26825
1582297434763024,-0.412903,0.834473,0.247192,-0.268311
1582297434785990,-0.412781,0.834412,0.247437,-0.268433
1582297434808214,-0.412781,0.834412,0.247437,-0.268494
1582297434822903,-0.41272,0.834412,0.247681,-0.268494
1582297434845780,-0.41272,0.834351,0.247742,-0.268494
1582297434868717,-0.41272,0.834351,0.247742,-0.268494
1582297434890084,-0.41272,0.834351,0.247742,-0.268555
1582297434905619,-0.41272,0.834351,0.247742,-0.268555
1582297434928560,-0.41272,0.834351,0.247742,-0.268555
1582297434949712,-0.41272,0.834351,0.247803,-0.268555
1582297434965733,-0.41272,0.834351,0.247803,-0.268555
1582297434988455,-0.41272,0.834351,0.247803,-0.268555
1582297435009512,-0.41272,0.834351,0.247803,-0.268555
1582297435025304,-0.41272,0.834351,0.247803,-0.268555
1582297435048243,-0.41272,0.834351,0.247864,-0.268555
1582297435069319,-0.41272,0.834351,0.247864,-0.268555
1582297435086137,-0.412598,0.83429,0.248108,-0.268677
1582297435109089,-0.412537,0.834229,0.248108,-0.268738
1582297435130016,-0.410706,0.83429,0.247498,-0.272095
1582297435146022,-0.408691,0.834534,0.245605,-0.276123
1582297435167912,-0.405151,0.833984,0.244751,-0.283569
1582297435189974,-0.406006,0.834167,0.245117,-0.281494
1582297435205815,-0.402832,0.833374,0.244385,-0.288879
1582297435228751,-0.40564,0.834229,0.244934,-0.28186
1582297435249905,-0.404297,0.83374,0.245361,-0.284912
1582297435265651,-0.404358,0.833862,0.244568,-0.285156
1582297435288648,-0.40625,0.834229,0.24585,-0.280396
1582297435309593,-0.403625,0.833679,0.244446,-0.286926
1582297435325756,-0.404419,0.833862,0.244812,-0.284851
1582297435348545,-0.401733,0.833008,0.244446,-0.291443
1582297435370556,-0.403931,0.83374,0.244507,-0.286194
1582297435386336,-0.403442,0.833374,0.245483,-0.287048
1582297435408272,-0.40509,0.83374,0.245605,-0.283691
1582297435431208,-0.404541,0.834106,0.245728,-0.283203
1582297435446169,-0.404602,0.833923,0.246216,-0.283264
1582297435468111,-0.404602,0.833923,0.246216,-0.283142
1582297435491097,-0.404663,0.833923,0.246216,-0.283081
1582297435505014,-0.404724,0.833984,0.246277,-0.282959
1582297435528066,-0.404724,0.833984,0.246277,-0.282898
1582297435550941,-0.404785,0.833984,0.246338,-0.282776
1582297435565115,-0.404785,0.833984,0.246338,-0.282715
1582297435588786,-0.404846,0.833984,0.246399,-0.282654
1582297435610728,-0.404907,0.833984,0.246399,-0.282593
1582297435624704,-0.404907,0.833984,0.24646,-0.282471
1582297435648625,-0.404968,0.833984,0.24646,-0.28241
1582297435670628,-0.404968,0.833984,0.246521,-0.282288
1582297435685542,-0.405029,0.833984,0.246521,-0.282227
1582297435708477,-0.405029,0.833984,0.246582,-0.282166
1582297435730572,-0.40509,0.833923,0.246643,-0.282104
1582297435745368,-0.40509,0.833923,0.246643,-0.282043
1582297435768367,-0.405151,0.833923,0.246704,-0.281982
1582297435791263,-0.405151,0.833923,0.246765,-0.281921
1582297435805272,-0.405212,0.833923,0.246765,-0.28186
1582297435813075,-0.405212,0.833923,0.246826,-0.281738
1582297435834508,-0.405273,0.833923,0.246887,-0.281677
1582297435856211,-0.405334,0.833923,0.246887,-0.281616
1582297435873070,-0.405334,0.833923,0.246948,-0.281555
1582297435894379,-0.405396,0.833923,0.246948,-0.281494
1582297435916195,-0.405396,0.833923,0.247009,-0.281433
1582297435934420,-0.405457,0.833923,0.24707,-0.281372
1582297435954037,-0.405457,0.833923,0.24707,-0.281311
1582297435975816,-0.405457,0.833923,0.247437,-0.281006
1582297435992755,-0.405457,0.833862,0.247864,-0.280762
1582297436013837,-0.405457,0.833862,0.247864,-0.280701
1582297436036590,-0.405518,0.833862,0.247925,-0.28064
1582297436052679,-0.405518,0.833862,0.247925,-0.280579
1582297436073855,-0.405579,0.833862,0.247986,-0.280518
1582297436096577,-0.405579,0.833862,0.247986,-0.280457
1582297436114386,-0.40564,0.833862,0.248047,-0.280396
1582297436133514,-0.40564,0.833862,0.248108,-0.280334
1582297436156464,-0.405701,0.833862,0.248108,-0.280273
1582297436172227,-0.405701,0.833862,0.248169,-0.280212
1582297436194226,-0.405762,0.833862,0.248169,-0.280151
1582297436224099,-0.405762,0.833862,0.24823,-0.28009
1582297436233062,-0.405823,0.833862,0.24823,-0.279968
1582297436254204,-0.405823,0.833862,0.248291,-0.279907
1582297436276008,-0.405945,0.833862,0.24823,-0.279602
1582297436293899,-0.406006,0.833862,0.248291,-0.279541
1582297436314049,-0.406006,0.833862,0.248352,-0.27948
1582297436336794,-0.406067,0.833862,0.248352,-0.27948
1582297436354558,-0.406067,0.833862,0.248352,-0.279419
1582297436373735,-0.406128,0.833862,0.248352,-0.279297
1582297436396685,-0.406128,0.833862,0.248413,-0.279236
1582297436414577,-0.406128,0.833862,0.248474,-0.279236
1582297436433917,-0.406189,0.833862,0.248474,-0.279175
1582297436456667,-0.406189,0.833862,0.248535,-0.279114
1582297436474542,-0.40625,0.833801,0.24884,-0.278992
1582297436493806,-0.40625,0.833801,0.248901,-0.278931
1582297436516499,-0.40625,0.833801,0.248901,-0.27887
1582297436534258,-0.406311,0.83374,0.249268,-0.278748
1582297436554556,-0.406311,0.83374,0.249268,-0.278687
1582297436576280,-0.406311,0.83374,0.249268,-0.278625
1582297436594099,-0.406372,0.833679,0.249329,-0.278625
1582297436614225,-0.406372,0.833679,0.24939,-0.278564
1582297436636565,-0.406372,0.833618,0.249756,-0.278442
1582297436653940,-0.406433,0.833618,0.249817,-0.278381
1582297436674108,-0.406433,0.833618,0.249817,-0.278381
1582297436696300,-0.406433,0.833618,0.249878,-0.27832
1582297436713777,-0.406555,0.833679,0.249817,-0.278076
1582297436733857,-0.406555,0.833618,0.249878,-0.278015
1582297436756773,-0.406555,0.833618,0.249878,-0.277954
1582297436774882,-0.406616,0.833618,0.249939,-0.277954
1582297436793697,-0.406616,0.833618,0.25,-0.277893
1582297436816507,-0.406616,0.833618,0.25,-0.277832
1582297436834459,-0.406677,0.833618,0.250061,-0.277771
1582297436853599,-0.406677,0.833618,0.250061,-0.27771
1582297436876553,-0.406738,0.833618,0.250122,-0.27771
1582297436894473,-0.406738,0.833618,0.250122,-0.277649
1582297436915246,-0.406738,0.833618,0.250183,-0.277588
1582297436936348,-0.406799,0.833557,0.250244,-0.277588
1582297436954141,-0.406799,0.833557,0.250244,-0.277527
1582297436975181,-0.406799,0.833557,0.250244,-0.277466
1582297436996069,-0.40686,0.833557,0.250305,-0.277466
1582297437014177,-0.40686,0.833557,0.250366,-0.277405
1582297437035180,-0.40686,0.833557,0.250366,-0.277405
1582297437056068,-0.40686,0.833557,0.250427,-0.277344
1582297437073811,-0.406921,0.833557,0.250427,-0.277344
1582297437095124,-0.406921,0.833557,0.250488,-0.277283
1582297437115703,-0.406921,0.833496,0.250488,-0.277222
1582297437134444,-0.406982,0.833496,0.250549,-0.277222
1582297437155602,-0.406982,0.833496,0.250549,-0.277161
1582297437176870,-0.406982,0.833496,0.25061,-0.2771
1582297437194088,-0.407043,0.833496,0.25061,-0.277039
1582297437216483,-0.407043,0.833496,0.250671,-0.277039
1582297437236740,-0.407043,0.833496,0.250671,-0.276978
1582297437254341,-0.407104,0.833496,0.250732,-0.276978
1582297437276541,-0.407104,0.833496,0.250732,-0.276917
1582297437296414,-0.407104,0.833435,0.250793,-0.276917
1582297437314173,-0.407104,0.833435,0.250854,-0.276855
1582297437336506,-0.407166,0.833435,0.250854,-0.276794
1582297437356547,-0.407166,0.833435,0.250854,-0.276794
1582297437374548,-0.407166,0.833435,0.250916,-0.276733
1582297437396948,-0.407227,0.833435,0.250916,-0.276733
1582297437416175,-0.407227,0.833435,0.250977,-0.276672
1582297437433038,-0.407227,0.833435,0.251038,-0.276672
1582297437456161,-0.407227,0.833435,0.251038,-0.276611
1582297437477258,-0.40741,0.833435,0.251038,-0.276367
1582297437493695,-0.40741,0.833435,0.251099,-0.276306
1582297437515646,-0.40741,0.833435,0.251099,-0.276306
1582297437537082,-0.407471,0.833435,0.251099,-0.276245
1582297437553598,-0.407471,0.833435,0.25116,-0.276245
1582297437575470,-0.407471,0.833374,0.25116,-0.276184
1582297437590430,-0.407593,0.833374,0.25116,-0.276062
1582297437613438,-0.407593,0.833374,0.251221,-0.276001
1582297437635485,-0.407593,0.833313,0.251465,-0.276001
1582297437650490,-0.407593,0.833313,0.251526,-0.27594
1582297437673417,-0.407593,0.833313,0.251526,-0.276001
1582297437696154,-0.407471,0.833252,0.251953,-0.276001
1582297437710112,-0.407288,0.833069,0.252625,-0.276123
1582297437733314,-0.406982,0.832825,0.253662,-0.276489
1582297437756055,-0.406433,0.832336,0.255005,-0.277405
1582297437777379,-0.405884,0.831665,0.256714,-0.278687
1582297437792890,-0.405334,0.830811,0.258789,-0.280029
1582297437815831,-0.404663,0.830017,0.26123,-0.281128
1582297437836967,-0.404114,0.829163,0.263855,-0.281982
1582297437853726,-0.403992,0.82843,0.265869,-0.28241
1582297437875845,-0.404297,0.827637,0.267883,-0.282471
1582297437896755,-0.404968,0.826721,0.269958,-0.282227
1582297437913770,-0.405823,0.825439,0.272766,-0.282104
1582297437935570,-0.406372,0.82373,0.27655,-0.282471
1582297437956657,-0.406982,0.822083,0.279907,-0.28302
1582297437972615,-0.408264,0.82074,0.281982,-0.283081
1582297437995412,-0.410034,0.819702,0.282898,-0.282654
1582297438017452,-0.412231,0.818481,0.283447,-0.282471
1582297438032311,-0.414612,0.816833,0.284241,-0.282898
1582297438056184,-0.41687,0.814697,0.285828,-0.284119
1582297438077325,-0.418823,0.811646,0.289307,-0.286499
1582297438092093,-0.42041,0.808105,0.293823,-0.289551
1582297438116220,-0.422363,0.805481,0.295959,-0.291931
1582297438137177,-0.424927,0.803772,0.29541,-0.293396
1582297438160905,-0.427734,0.802612,0.293335,-0.294678
1582297438175867,-0.430054,0.801331,0.291626,-0.296326
1582297438198003,-0.43219,0.80011,0.290283,-0.297974
1582297438212986,-0.433899,0.798828,0.289429,-0.299683
1582297438235710,-0.43573,0.797791,0.288208,-0.300903
1582297438258646,-0.437134,0.796875,0.287537,-0.302002
1582297438273616,-0.43866,0.796021,0.286987,-0.302612
1582297438295544,-0.440247,0.795105,0.286682,-0.30304
1582297438318546,-0.441711,0.794128,0.286804,-0.303223
1582297438332449,-0.443176,0.793274,0.286987,-0.303284
1582297438355568,-0.444336,0.792542,0.28717,-0.303284
1582297438378387,-0.445496,0.791931,0.28717,-0.303101
1582297438392519,-0.446594,0.791565,0.286926,-0.302734
1582297438416222,-0.447327,0.791382,0.286499,-0.302612
1582297438438382,-0.447632,0.791382,0.286133,-0.302551
1582297438452332,-0.447571,0.791626,0.285645,-0.302246
1582297438476069,-0.447205,0.792175,0.285461,-0.301697
1582297438498173,-0.44635,0.792786,0.285706,-0.301025
1582297438512968,-0.444824,0.793457,0.286743,-0.300537
1582297438535949,-0.442871,0.79425,0.288147,-0.300049
1582297438558332,-0.440735,0.795166,0.289429,-0.2995
1582297438572864,-0.438721,0.796448,0.289856,-0.298645
1582297438595972,-0.436707,0.798096,0.289429,-0.297546
1582297438618678,-0.43457,0.799805,0.288757,-0.296692
1582297438632706,-0.432068,0.801453,0.288269,-0.296387
1582297438655838,-0.429626,0.802979,0.287903,-0.296204
1582297438678527,-0.427307,0.804504,0.287354,-0.295959
1582297438699652,-0.424988,0.806091,0.28656,-0.295715
1582297438715935,-0.422607,0.807922,0.285217,-0.295532
1582297438738541,-0.419983,0.80957,0.284363,-0.295654
1582297438759337,-0.417175,0.810791,0.284302,-0.296204
1582297438775312,-0.414612,0.812317,0.283691,-0.296265
1582297438799264,-0.412048,0.813782,0.283386,-0.296082
1582297438819677,-0.409607,0.815063,0.283386,-0.295959
1582297438836144,-0.407166,0.816406,0.283569,-0.295471
1582297438858038,-0.404663,0.817932,0.283325,-0.294861
1582297438879406,-0.402527,0.819763,0.281921,-0.294067
1582297438895981,-0.40033,0.821655,0.280273,-0.293457
1582297438918016,-0.397888,0.823486,0.278748,-0.292847
1582297438940145,-0.395264,0.825317,0.277405,-0.292542
1582297438954934,-0.393005,0.827454,0.275024,-0.29187
1582297438978723,-0.391296,0.829895,0.271362,-0.290649
1582297438999855,-0.389465,0.832092,0.268372,-0.289734
1582297439015620,-0.387512,0.833862,0.266052,-0.289185
1582297439038606,-0.385437,0.835388,0.264832,-0.288818
1582297439059651,-0.383423,0.836792,0.263916,-0.288269
1582297439075456,-0.382324,0.83844,0.261597,-0.287048
1582297439098404,-0.381409,0.839905,0.259216,-0.286194
1582297439119510,-0.380859,0.841187,0.256653,-0.285522
1582297439135561,-0.380371,0.842041,0.254578,-0.2854
1582297439158241,-0.379883,0.842773,0.252808,-0.285522
1582297439181182,-0.379639,0.843628,0.25061,-0.285339
1582297439196141,-0.379761,0.844421,0.247925,-0.285034
1582297439218076,-0.38031,0.84491,0.245544,-0.284851
1582297439241027,-0.380981,0.845093,0.24353,-0.285156
1582297439254977,-0.381897,0.844666,0.242737,-0.28595
1582297439277964,-0.382996,0.844238,0.24054,-0.287537
1582297439300917,-0.384399,0.843079,0.241211,-0.288513
1582297439314815,-0.386475,0.84259,0.238953,-0.289001
1582297439337951,-0.387817,0.840515,0.241028,-0.291504
1582297439360700,-0.390198,0.838684,0.241516,-0.293274
1582297439381834,-0.3927,0.836731,0.241943,-0.295105
1582297439398604,-0.395203,0.8349,0.242493,-0.29657
1582297439420598,-0.397522,0.832825,0.243835,-0.298279
1582297439441522,-0.399841,0.830688,0.24585,-0.299438
1582297439458431,-0.402283,0.828796,0.246826,-0.300537
1582297439480546,-0.404724,0.826843,0.247986,-0.301758
1582297439502314,-0.406799,0.824768,0.249695,-0.303284
1582297439518280,-0.408203,0.822388,0.252747,-0.305176
1582297439541213,-0.409424,0.820251,0.255798,-0.306702
1582297439562288,-0.411072,0.818481,0.257935,-0.307495
1582297439578287,-0.41272,0.817017,0.259521,-0.3078
1582297439601119,-0.413879,0.815979,0.260986,-0.307739
1582297439622165,-0.415039,0.815063,0.262146,-0.307617
1582297439638011,-0.416077,0.814453,0.262756,-0.307434
1582297439660890,-0.417053,0.813843,0.263062,-0.307434
1582297439682231,-0.417908,0.813232,0.263367,-0.307556
1582297439698791,-0.418884,0.812622,0.263489,-0.3078
1582297439721002,-0.4198,0.812134,0.26355,-0.307861
1582297439741678,-0.420288,0.811523,0.264343,-0.308105
1582297439758630,-0.420715,0.810852,0.26532,-0.30835
1582297439780629,-0.420898,0.810181,0.266846,-0.308655
1582297439801779,-0.420593,0.809509,0.268799,-0.309021
1582297439818478,-0.420349,0.80896,0.270447,-0.309387
1582297439840425,-0.42041,0.808594,0.271179,-0.309631
1582297439861355,-0.420959,0.808655,0.270508,-0.309387
1582297439878550,-0.421997,0.808777,0.268921,-0.308899
1582297439900454,-0.42334,0.808838,0.267212,-0.308411
1582297439922389,-0.424438,0.808716,0.26593,-0.30835
1582297439938153,-0.425903,0.808472,0.264404,-0.30835
1582297439961089,-0.42749,0.808044,0.263,-0.30835
1582297439982279,-0.428894,0.807678,0.262085,-0.308167
1582297439998055,-0.429993,0.807373,0.261536,-0.308044
1582297440021209,-0.430786,0.807068,0.261169,-0.307861
1582297440041908,-0.431091,0.806885,0.261169,-0.308044
1582297440058103,-0.431091,0.806824,0.26123,-0.308167
1582297440081070,-0.430542,0.806641,0.261963,-0.308655
1582297440103706,-0.429932,0.806702,0.262634,-0.308777
1582297440118676,-0.429321,0.806763,0.26355,-0.308777
1582297440140608,-0.428467,0.806824,0.264771,-0.308777
1582297440163543,-0.427673,0.806885,0.265991,-0.308716
1582297440178588,-0.427002,0.80719,0.266602,-0.30835
1582297440200578,-0.426453,0.807617,0.266663,-0.307861
1582297440223383,-0.426025,0.808105,0.266235,-0.307434
1582297440237773,-0.425842,0.808533,0.265686,-0.307068
1582297440260477,-0.425781,0.80896,0.265015,-0.306641
1582297440283229,-0.425903,0.809448,0.264099,-0.30603
1582297440297606,-0.426025,0.809937,0.262878,-0.305481
1582297440321125,-0.426147,0.810425,0.261719,-0.305115
1582297440343268,-0.42627,0.810791,0.260681,-0.304932
1582297440358025,-0.426147,0.811157,0.259888,-0.304749
1582297440380995,-0.426147,0.811584,0.258911,-0.304504
1582297440403039,-0.426147,0.812012,0.257874,-0.304199
1582297440418104,-0.425964,0.812317,0.257324,-0.304138
1582297440440804,-0.425598,0.812561,0.25708,-0.304077
1582297440462758,-0.425293,0.812866,0.256775,-0.303955
1582297440477713,-0.425171,0.813232,0.256348,-0.30365
1582297440500649,-0.425049,0.813477,0.255981,-0.303345
1582297440523586,-0.424866,0.813721,0.255798,-0.30304
1582297440537758,-0.424683,0.813904,0.255798,-0.302856
1582297440560533,-0.424438,0.813965,0.256104,-0.302795
1582297440583471,-0.424316,0.814026,0.256226,-0.302673
1582297440604591,-0.424377,0.814026,0.256226,-0.302673
1582297440620739,-0.424316,0.814209,0.25592,-0.30249
1582297440643461,-0.424316,0.814392,0.255554,-0.302368
1582297440664207,-0.424194,0.814514,0.255432,-0.302307
1582297440681163,-0.424133,0.814575,0.255371,-0.302307
1582297440704108,-0.42395,0.814697,0.25531,-0.302246
1582297440724171,-0.423828,0.81488,0.254944,-0.302124
1582297440741015,-0.423706,0.815063,0.2547,-0.302002
1582297440762970,-0.423523,0.815186,0.254761,-0.302063
1582297440784931,-0.423523,0.815186,0.2547,-0.302063
1582297440801124,-0.423584,0.815308,0.254395,-0.30188
1582297440822827,-0.423523,0.815308,0.254395,-0.301941
1582297440828983,-0.423584,0.815369,0.25415,-0.30188
1582297440851713,-0.423584,0.815369,0.25415,-0.30188
1582297440866737,-0.423584,0.815369,0.25415,-0.30188
1582297440888809,-0.423584,0.815369,0.25415,-0.30188
1582297440911740,-0.423584,0.815369,0.25415,-0.30188
1582297440926574,-0.423584,0.815369,0.254211,-0.30188
1582297440948512,-0.423584,0.815369,0.254211,-0.30188
1582297440971816,-0.423584,0.815369,0.254211,-0.30188
1582297440986554,-0.423645,0.815369,0.254089,-0.301941
1582297441008284,-0.423767,0.815369,0.253845,-0.301819
1582297441034222,-0.423889,0.81543,0.253601,-0.301697
1582297441046586,-0.424011,0.81543,0.25354,-0.301636
1582297441069262,-0.424194,0.815369,0.253418,-0.301636
1582297441094193,-0.424194,0.815369,0.253418,-0.301636
1582297441106080,-0.424011,0.815369,0.253723,-0.301697
1582297441129166,-0.424011,0.81543,0.253601,-0.301636
1582297441151115,-0.424011,0.815369,0.253601,-0.301697
1582297441166011,-0.424011,0.815369,0.253601,-0.301697
1582297441189018,-0.424011,0.815369,0.253601,-0.301697
1582297441206755,-0.424011,0.815369,0.253662,-0.301697
1582297441226703,-0.424072,0.81543,0.25354,-0.301636
1582297441248877,-0.424072,0.81543,0.25354,-0.301636
1582297441266603,-0.424072,0.81543,0.25354,-0.301636
1582297441286755,-0.424072,0.815369,0.253601,-0.301636
1582297441308618,-0.424072,0.815369,0.253601,-0.301636
1582297441327004,-0.424072,0.815369,0.253601,-0.301697
1582297441346508,-0.424011,0.815369,0.253601,-0.301697
1582297441369379,-0.424011,0.815369,0.253601,-0.301697
1582297441386938,-0.424011,0.815369,0.253662,-0.301758
1582297441406230,-0.424011,0.815369,0.253662,-0.301758
1582297441429161,-0.424011,0.815369,0.253662,-0.301758
1582297441446571,-0.424011,0.815308,0.253662,-0.301758
1582297441466118,-0.424011,0.815308,0.253662,-0.301758
1582297441491992,-0.424011,0.815308,0.253723,-0.301758
1582297441506957,-0.424072,0.815369,0.253601,-0.301697
1582297441526344,-0.424072,0.815369,0.25354,-0.301697
1582297441549042,-0.424072,0.815369,0.25354,-0.301697
1582297441567072,-0.424072,0.815369,0.25354,-0.301758
1582297441586786,-0.424072,0.815308,0.25354,-0.301758
1582297441608921,-0.424072,0.815308,0.25354,-0.301758
1582297441626638,-0.424072,0.815308,0.253601,-0.301758
1582297441647639,-0.424072,0.815308,0.253601,-0.301758
1582297441668713,-0.424072,0.815308,0.253601,-0.301819
1582297441686641,-0.424072,0.815308,0.253601,-0.301819
1582297441707548,-0.424072,0.815308,0.253601,-0.301819
1582297441736554,-0.424072,0.815308,0.253601,-0.301819
1582297441746381,-0.424072,0.815308,0.253601,-0.301758
1582297441769251,-0.424072,0.815308,0.253601,-0.301819
1582297441789276,-0.424072,0.815308,0.253601,-0.301819
1582297441806652,-0.424072,0.815308,0.253662,-0.301819
1582297441827274,-0.424072,0.815308,0.253601,-0.301819
1582297441849265,-0.424072,0.815369,0.253479,-0.301758
1582297441866182,-0.424072,0.815369,0.253479,-0.301758
1582297441887997,-0.424072,0.815369,0.253418,-0.301758
1582297441909076,-0.424072,0.815369,0.253418,-0.301758
1582297441926843,-0.424133,0.81543,0.253235,-0.301697
1582297441947840,-0.424133,0.81543,0.253235,-0.301697
1582297441968944,-0.424194,0.81543,0.253113,-0.301697
1582297441986669,-0.424194,0.81543,0.253113,-0.301697
1582297442016590,-0.424194,0.81543,0.253113,-0.301697
1582297442031933,-0.424194,0.81543,0.253174,-0.301697
1582297442046510,-0.424194,0.81543,0.253174,-0.301697
1582297442069446,-0.424194,0.81543,0.253113,-0.301697
1582297442089394,-0.424194,0.81543,0.253174,-0.301697
1582297442107012,-0.424194,0.81543,0.253174,-0.301697
1582297442129287,-0.424194,0.81543,0.253174,-0.301758
1582297442148455,-0.424194,0.81543,0.253174,-0.301758
1582297442166188,-0.424194,0.81543,0.253174,-0.301758
1582297442189137,-0.424194,0.81543,0.253174,-0.301758
1582297442209098,-0.424194,0.81543,0.253174,-0.301697
1582297442227030,-0.424194,0.81543,0.252991,-0.301697
1582297442249531,-0.424194,0.815491,0.252808,-0.301758
1582297442269106,-0.424194,0.815491,0.252869,-0.301819
1582297442286873,-0.423889,0.81543,0.253174,-0.302185
1582297442308805,-0.423706,0.815369,0.253357,-0.302368
1582297442328953,-0.423462,0.815369,0.253601,-0.30249
1582297442346905,-0.423096,0.81543,0.253967,-0.302551
1582297442368953,-0.423096,0.815491,0.253906,-0.30249
1582297442388785,-0.423096,0.815491,0.253845,-0.30249
1582297442406609,-0.423096,0.815674,0.25354,-0.302368
1582297442429553,-0.423096,0.815674,0.25354,-0.302368
1582297442449482,-0.423096,0.815674,0.253479,-0.302368
1582297442465586,-0.423096,0.815674,0.25354,-0.302368
1582297442488394,-0.423096,0.815613,0.25354,-0.302368
1582297442509489,-0.423096,0.815613,0.253601,-0.302368
1582297442526226,-0.423035,0.815613,0.253601,-0.302429
1582297442548170,-0.422913,0.815613,0.253662,-0.30249
1582297442571103,-0.422729,0.815613,0.253906,-0.302612
1582297442586066,-0.422729,0.815613,0.253906,-0.302612
1582297442608063,-0.422729,0.815674,0.254028,-0.30249
1582297442629994,-0.422729,0.815674,0.253967,-0.30249
1582297442645905,-0.422729,0.815674,0.253967,-0.30249
1582297442668047,-0.422791,0.815674,0.253906,-0.302368
1582297442689797,-0.422791,0.815735,0.253845,-0.302307
1582297442713090,-0.422729,0.815674,0.254028,-0.302368
1582297442727843,-0.422729,0.815674,0.254028,-0.302368
1582297442749825,-0.422729,0.815674,0.254089,-0.302368
1582297442765592,-0.422729,0.815674,0.254089,-0.302368
1582297442788596,-0.422668,0.815613,0.25415,-0.30249
1582297442809713,-0.422668,0.815613,0.25415,-0.30249
1582297442825691,-0.422668,0.815613,0.25415,-0.302429
1582297442848658,-0.422668,0.815613,0.25415,-0.302429
1582297442869524,-0.422668,0.815613,0.25415,-0.302429
1582297442885463,-0.422791,0.815674,0.254028,-0.302368
1582297442908381,-0.422791,0.815674,0.254028,-0.302368
1582297442931172,-0.422791,0.815674,0.254028,-0.302368
1582297442946103,-0.422729,0.815674,0.254028,-0.302368
1582297442968066,-0.422729,0.815674,0.254028,-0.302368
1582297442991045,-0.422729,0.815674,0.254028,-0.302368
1582297443005942,-0.422729,0.815674,0.254028,-0.302368
1582297443027929,-0.422729,0.815674,0.254028,-0.302368
1582297443050864,-0.422729,0.815674,0.253967,-0.302368
1582297443064788,-0.422729,0.815674,0.254028,-0.302429
1582297443088719,-0.422729,0.815674,0.254028,-0.302429
1582297443110726,-0.422668,0.815613,0.254211,-0.30249
1582297443124652,-0.422668,0.815613,0.254211,-0.30249
1582297443155540,-0.422668,0.815552,0.254272,-0.30249
1582297443170516,-0.422668,0.815552,0.254272,-0.30249
1582297443185485,-0.422668,0.815613,0.254272,-0.30249
1582297443208405,-0.422668,0.815613,0.254272,-0.30249
1582297443230384,-0.422668,0.815552,0.254272,-0.30249
1582297443245300,-0.422668,0.815552,0.254272,-0.30249
1582297443268255,-0.422668,0.815613,0.254272,-0.30249
1582297443291177,-0.422668,0.815613,0.254272,-0.30249
1582297443305361,-0.422668,0.815613,0.254272,-0.30249
1582297443328326,-0.422668,0.815613,0.254272,-0.30249
1582297443351019,-0.422546,0.815491,0.254517,-0.302673
1582297443364988,-0.422485,0.81543,0.254761,-0.302795
1582297443388032,-0.422424,0.81543,0.254883,-0.302734
1582297443410911,-0.422302,0.81543,0.255005,-0.302734
1582297443433152,-0.422302,0.81543,0.255005,-0.302734
1582297443447953,-0.422302,0.81543,0.255005,-0.302734
1582297443470703,-0.422302,0.81543,0.254944,-0.302734
1582297443491711,-0.422302,0.81543,0.254944,-0.302734
1582297443508603,-0.422241,0.81543,0.255188,-0.302795
1582297443530543,-0.422241,0.81543,0.255188,-0.302795
1582297443552487,-0.422241,0.81543,0.255188,-0.302795
1582297443568499,-0.422119,0.815369,0.255432,-0.302795
1582297443590609,-0.422058,0.815369,0.255615,-0.302856
1582297443611757,-0.422058,0.815369,0.255554,-0.302795
1582297443628341,-0.422058,0.815369,0.255554,-0.302795
1582297443651215,-0.422058,0.815369,0.255554,-0.302856
1582297443679343,-0.422119,0.815369,0.255615,-0.302856
1582297443696102,-0.421997,0.815308,0.255798,-0.302856
1582297443711060,-0.421997,0.815308,0.255798,-0.302856
1582297443732187,-0.421997,0.815308,0.255798,-0.302856
1582297443748201,-0.421997,0.815308,0.255798,-0.302856
1582297443771174,-0.421997,0.815308,0.255798,-0.302856
1582297443792297,-0.421997,0.815308,0.255798,-0.302856
1582297443807855,-0.422058,0.81543,0.255554,-0.302734
1582297443830739,-0.422058,0.81543,0.255554,-0.302734
1582297443852159,-0.422058,0.81543,0.255554,-0.302734
1582297443868633,-0.422058,0.81543,0.255554,-0.302734
1582297443890572,-0.422058,0.81543,0.255554,-0.302734
1582297443913514,-0.422058,0.81543,0.255554,-0.302734
1582297443928489,-0.422058,0.81543,0.255554,-0.302734
1582297443950768,-0.422058,0.81543,0.255554,-0.302734
1582297443973363,-0.422058,0.81543,0.255554,-0.302734
1582297443988512,-0.422058,0.81543,0.255554,-0.302734
1582297444010449,-0.422058,0.81543,0.255554,-0.302673
1582297444041176,-0.422241,0.815491,0.25531,-0.302551
1582297444047329,-0.422241,0.815491,0.25531,-0.302551
1582297444071145,-0.422241,0.815491,0.255249,-0.30249
1582297444093032,-0.42218,0.815491,0.255249,-0.302551
1582297444107999,-0.422302,0.815552,0.255005,-0.302551
1582297444137150,-0.422302,0.815552,0.255005,-0.302551
1582297444153039,-0.422302,0.815552,0.255005,-0.302551
1582297444175875,-0.422302,0.815552,0.255005,-0.302551
1582297444190828,-0.422302,0.815491,0.255127,-0.30249
1582297444213711,-0.422302,0.815552,0.255066,-0.30249
1582297444235804,-0.422302,0.815552,0.255066,-0.30249
1582297444250617,-0.422424,0.815552,0.254883,-0.302429
1582297444273612,-0.422424,0.815552,0.254944,-0.302429
1582297444287516,-0.422424,0.815552,0.254944,-0.302429
1582297444311635,-0.422485,0.815552,0.254761,-0.302429
1582297444333458,-0.422485,0.815491,0.254822,-0.302429
1582297444347413,-0.422485,0.815491,0.254822,-0.30249
1582297444370480,-0.422485,0.815491,0.254822,-0.30249
1582297444393275,-0.422485,0.815552,0.254761,-0.302429
1582297444414242,-0.422485,0.815552,0.254761,-0.302429
1582297444431127,-0.422485,0.815552,0.254761,-0.302429
1582297444453310,-0.422485,0.815552,0.254761,-0.302429
1582297444474845,-0.422485,0.815552,0.254761,-0.302429
1582297444490966,-0.422485,0.815552,0.254761,-0.302429
1582297444512974,-0.422485,0.815552,0.254761,-0.302429
1582297444542198,-0.422485,0.815552,0.254578,-0.302429
1582297444551009,-0.422485,0.815613,0.254578,-0.302429
1582297444573480,-0.422485,0.815613,0.254578,-0.302429
1582297444594757,-0.422546,0.815613,0.254395,-0.302368
1582297444610652,-0.422607,0.815674,0.25415,-0.302429
1582297444633584,-0.422607,0.815674,0.254089,-0.302429
1582297444654734,-0.422607,0.815674,0.25415,-0.302429
1582297444670757,-0.422607,0.815674,0.25415,-0.302429
1582297444693440,-0.422607,0.815674,0.25415,-0.30249
1582297444714591,-0.422607,0.815674,0.25415,-0.30249
1582297444730774,-0.422607,0.815674,0.254089,-0.30249
1582297444753568,-0.422607,0.815674,0.254089,-0.30249
1582297444774213,-0.422607,0.815674,0.254089,-0.302429
1582297444791169,-0.422607,0.815674,0.254089,-0.302429
1582297444813258,-0.422607,0.815735,0.254028,-0.302429
1582297444836088,-0.422607,0.815674,0.254089,-0.30249
1582297444851051,-0.422546,0.815674,0.254089,-0.30249
1582297444872953,-0.422607,0.815735,0.254028,-0.302429
1582297444895885,-0.422546,0.815857,0.253723,-0.302368
1582297444909847,-0.422485,0.815918,0.25354,-0.302368
1582297444932981,-0.422485,0.815918,0.253601,-0.302368
1582297444955726,-0.422485,0.815918,0.25354,-0.302368
1582297444969881,-0.422485,0.815979,0.25354,-0.302368
1582297444993629,-0.422485,0.815979,0.25354,-0.302368
1582297445015574,-0.422485,0.815979,0.25354,-0.302368
1582297445030532,-0.422485,0.815979,0.25354,-0.302368
1582297445053723,-0.422424,0.815918,0.253662,-0.302368
1582297445075462,-0.422424,0.815918,0.253662,-0.302368
1582297445090370,-0.422424,0.815979,0.253662,-0.302368
1582297445113372,-0.422424,0.815979,0.253662,-0.302368
1582297445135804,-0.422424,0.815918,0.253662,-0.302368
1582297445150451,-0.422302,0.815918,0.253845,-0.302429
1582297445173324,-0.42218,0.815918,0.254089,-0.30249
1582297445196081,-0.422119,0.815857,0.254211,-0.302551
1582297445210201,-0.422119,0.815857,0.254211,-0.302551
1582297445233046,-0.421997,0.815857,0.254395,-0.302612
1582297445255938,-0.421997,0.815857,0.254395,-0.302551
1582297445269891,-0.421997,0.815857,0.254395,-0.302612
1582297445292936,-0.421997,0.815857,0.254395,-0.302612
1582297445315805,-0.421997,0.815796,0.254578,-0.302612
1582297445345138,-0.421997,0.815796,0.254578,-0.302551
1582297445353661,-0.421997,0.815796,0.254578,-0.302551
1582297445375609,-0.421997,0.815796,0.254578,-0.302612
1582297445396940,-0.421997,0.815796,0.254578,-0.302612
1582297445413499,-0.421997,0.815796,0.254578,-0.302612
1582297445435529,-0.421997,0.815796,0.254578,-0.302612
1582297445457390,-0.421997,0.815796,0.254578,-0.302612
1582297445473338,-0.421997,0.815796,0.254578,-0.302612
1582297445495739,-0.421997,0.815796,0.254578,-0.302612
1582297445517438,-0.421997,0.815796,0.254578,-0.302612
1582297445533198,-0.421997,0.815735,0.254761,-0.302673
1582297445556125,-0.421997,0.815735,0.254761,-0.302673
1582297445577210,-0.421997,0.815735,0.254761,-0.302673
1582297445593032,-0.421997,0.815735,0.254761,-0.302612
1582297445616026,-0.421997,0.815735,0.254761,-0.302612
1582297445637102,-0.421997,0.815735,0.254761,-0.302612
1582297445652996,-0.421875,0.815735,0.254883,-0.302612
1582297445682996,-0.421753,0.815796,0.255066,-0.30249
1582297445696787,-0.421753,0.815796,0.255127,-0.30249
1582297445713699,-0.421753,0.815796,0.255127,-0.30249
1582297445735837,-0.421692,0.815674,0.255371,-0.302612
1582297445756710,-0.421631,0.815613,0.255676,-0.302612
1582297445773687,-0.42157,0.815613,0.25592,-0.302612
1582297445795485,-0.421448,0.815552,0.256165,-0.302612
1582297445818645,-0.421387,0.815491,0.256531,-0.302612
1582297445833432,-0.421265,0.815491,0.256836,-0.302612
1582297445855327,-0.421143,0.81543,0.25708,-0.302673
1582297445861496,-0.421143,0.81543,0.25708,-0.302673
1582297445884295,-0.421143,0.81543,0.25708,-0.302673
1582297445901441,-0.421204,0.81543,0.257141,-0.302612
1582297445929120,-0.421143,0.815369,0.257141,-0.302673
1582297445944084,-0.421204,0.815369,0.257141,-0.302673
1582297445959237,-0.421082,0.815308,0.257385,-0.302795
1582297445981039,-0.421021,0.815247,0.257568,-0.302917
1582297446004118,-0.421021,0.815247,0.257568,-0.302917
1582297446019091,-0.421021,0.815247,0.257568,-0.302917
1582297446041190,-0.421021,0.815247,0.257568,-0.302917
1582297446063976,-0.421021,0.815247,0.257568,-0.302856
1582297446078931,-0.421021,0.815247,0.257568,-0.302856
1582297446101723,-0.421021,0.815247,0.257568,-0.302856
1582297446123597,-0.421021,0.815247,0.257568,-0.302917
1582297446138751,-0.421021,0.815247,0.257568,-0.302917
1582297446161831,-0.421021,0.815247,0.257629,-0.302917
1582297446183766,-0.421021,0.815247,0.257629,-0.302917
1582297446206386,-0.421021,0.815247,0.257629,-0.302917
1582297446221540,-0.421021,0.815247,0.257629,-0.302917
1582297446243492,-0.421021,0.815247,0.257629,-0.302917
1582297446258725,-0.421021,0.815186,0.257629,-0.302917
1582297446281372,-0.421021,0.815186,0.25769,-0.302917
1582297446304115,-0.421021,0.815186,0.25769,-0.302917
1582297446319197,-0.421021,0.815186,0.25769,-0.302917
1582297446341084,-0.421021,0.815186,0.25769,-0.302917
1582297446363955,-0.421021,0.815186,0.25769,-0.302917
1582297446379972,-0.421021,0.815186,0.25769,-0.302917
1582297446401064,-0.421021,0.815186,0.25769,-0.302917
1582297446423986,-0.421021,0.815186,0.257751,-0.302917
1582297446439759,-0.421021,0.815186,0.257751,-0.302917
1582297446461703,-0.421021,0.815186,0.257751,-0.302917
1582297446483795,-0.421021,0.815186,0.257751,-0.302917
1582297446500171,-0.421021,0.815186,0.257751,-0.302917
1582297446521893,-0.421021,0.815186,0.257751,-0.302917
1582297446543855,-0.421021,0.815125,0.257813,-0.302917
1582297446560430,-0.421021,0.815125,0.257813,-0.302979
1582297446581595,-0.421021,0.815002,0.258118,-0.30304
1582297446603519,-0.420959,0.814941,0.258423,-0.30304
1582297446620325,-0.420959,0.814941,0.258423,-0.30304
1582297446641372,-0.420959,0.814941,0.258423,-0.30304
1582297446663633,-0.420959,0.814941,0.258423,-0.30304
1582297446681107,-0.420959,0.814941,0.258423,-0.30304
1582297446701555,-0.420959,0.814941,0.258423,-0.30304
1582297446724013,-0.420959,0.814941,0.258423,-0.30304
1582297446741952,-0.420959,0.814941,0.258484,-0.30304
1582297446763886,-0.420959,0.814941,0.258484,-0.30304
1582297446778852,-0.420959,0.814941,0.258484,-0.303101
1582297446802028,-0.420959,0.814941,0.258484,-0.303101
1582297446821744,-0.420959,0.814941,0.258484,-0.303101
1582297446839112,-0.420959,0.814941,0.258484,-0.303101
1582297446861719,-0.420959,0.814941,0.258484,-0.303101
1582297446881979,-0.420959,0.81488,0.258545,-0.303101
1582297446899524,-0.420959,0.81488,0.258545,-0.303101
1582297446921472,-0.420959,0.81488,0.258545,-0.303101
1582297446941594,-0.42041,0.815796,0.257935,-0.301941
1582297446959369,-0.419006,0.816284,0.258728,-0.301819
1582297446981801,-0.41803,0.816162,0.260254,-0.302307
1582297447001524,-0.419067,0.816223,0.258911,-0.30188
1582297447019202,-0.418823,0.81604,0.259521,-0.302124
1582297447041150,-0.418762,0.815979,0.259583,-0.302246
1582297447061551,-0.419189,0.815552,0.259766,-0.302734
1582297447079043,-0.420044,0.815063,0.259521,-0.302979
1582297447101995,-0.420044,0.814697,0.26001,-0.303711
1582297447121381,-0.420471,0.814331,0.26001,-0.304077
1582297447138888,-0.421082,0.813904,0.260193,-0.304199
1582297447161822,-0.42157,0.813599,0.260437,-0.304199
1582297447181798,-0.421387,0.813538,0.260986,-0.304077
1582297447198725,-0.421204,0.813721,0.26123,-0.303711
1582297447221696,-0.420898,0.813904,0.261414,-0.303467
1582297447241669,-0.42041,0.814148,0.261658,-0.303162
1582297447258572,-0.420044,0.814453,0.261414,-0.303101
1582297447281500,-0.419922,0.814575,0.261292,-0.30304
1582297447301615,-0.420288,0.814636,0.260681,-0.302856
1582297447319960,-0.420654,0.814453,0.260498,-0.30304
1582297447341342,-0.420898,0.814392,0.260132,-0.303162
1582297447362292,-0.421021,0.814209,0.260193,-0.303406
1582297447379245,-0.421021,0.814087,0.260376,-0.303589
1582297447401492,-0.421021,0.814087,0.260376,-0.303589
1582297447422132,-0.420776,0.814148,0.260559,-0.30365
1582297447439327,-0.420349,0.814209,0.260925,-0.303711
1582297447461471,-0.420227,0.81427,0.261108,-0.303589
1582297447482962,-0.420227,0.81427,0.261108,-0.303589
1582297447498051,-0.420227,0.814331,0.261108,-0.303528
1582297447521141,-0.420349,0.814331,0.260803,-0.303528
1582297447542298,-0.420532,0.814331,0.26062,-0.303528
1582297447565745,-0.420471,0.814331,0.26062,-0.303528
1582297447580709,-0.420471,0.814331,0.26062,-0.303589
1582297447601872,-0.420593,0.814331,0.260559,-0.303406
1582297447618607,-0.420471,0.814331,0.260803,-0.303345
1582297447640714,-0.420349,0.814331,0.261169,-0.303284
1582297447663479,-0.420166,0.814331,0.261353,-0.303284
1582297447678446,-0.420166,0.814331,0.261353,-0.303223
1582297447700523,-0.420166,0.814331,0.261353,-0.303223
1582297447723326,-0.420349,0.814331,0.260986,-0.303345
1582297447738488,-0.420593,0.814331,0.260681,-0.303345
1582297447760436,-0.420776,0.81427,0.260559,-0.303345
1582297447783160,-0.420776,0.81427,0.260559,-0.303345
1582297447798270,-0.420776,0.81427,0.26062,-0.303345
1582297447821059,-0.420776,0.81427,0.26062,-0.303345
1582297447843260,-0.420776,0.81427,0.26062,-0.303345
1582297447857966,-0.420776,0.81427,0.26062,-0.303345
1582297447880930,-0.420776,0.81427,0.26062,-0.303345
1582297447902835,-0.420959,0.81427,0.260254,-0.303223
1582297447917867,-0.421143,0.81427,0.260132,-0.303284
1582297447940742,-0.421143,0.814209,0.260132,-0.303284
1582297447963681,-0.421143,0.814209,0.260132,-0.303284
1582297447977708,-0.421143,0.814209,0.260132,-0.303284
1582297448000581,-0.421143,0.814209,0.260132,-0.303284
1582297448023671,-0.421143,0.814209,0.260132,-0.303284
1582297448037716,-0.421143,0.814209,0.260132,-0.303284
1582297448060752,-0.421204,0.81427,0.259949,-0.303223
1582297448083355,-0.421265,0.814331,0.259766,-0.303223
1582297448097619,-0.421326,0.814331,0.259583,-0.303223
1582297448121254,-0.421326,0.814331,0.259583,-0.303223
1582297448151183,-0.421326,0.814331,0.259644,-0.303223
1582297448164418,-0.421326,0.814331,0.259583,-0.303223
1582297448181101,-0.421326,0.814331,0.259583,-0.303223
1582297448203044,-0.421448,0.814453,0.259338,-0.302979
1582297448224225,-0.421631,0.814575,0.25885,-0.302795
1582297448240934,-0.421814,0.814636,0.258423,-0.302734
1582297448262926,-0.421997,0.814697,0.257935,-0.302734
1582297448284874,-0.422241,0.814819,0.257324,-0.302551
1582297448300778,-0.422363,0.81488,0.256958,-0.30249
1582297448323722,-0.422607,0.814941,0.256409,-0.302429
1582297448344842,-0.422852,0.814941,0.25592,-0.302551
1582297448360793,-0.422974,0.815002,0.255493,-0.302551
1582297448383552,-0.423096,0.815125,0.255127,-0.30249
1582297448404588,-0.423157,0.815125,0.254822,-0.30249
1582297448428435,-0.423279,0.815186,0.254578,-0.302429
1582297448443399,-0.423462,0.815186,0.254272,-0.302429
1582297448464571,-0.423462,0.815186,0.254272,-0.302429
1582297448480474,-0.423523,0.815247,0.253967,-0.302429
1582297448511276,-0.423706,0.815308,0.25354,-0.302429
1582297448524520,-0.423828,0.815369,0.253113,-0.302429
1582297448541138,-0.42395,0.81543,0.252747,-0.302429
1582297448563078,-0.42395,0.815491,0.252502,-0.302429
1582297448584217,-0.424011,0.815491,0.25238,-0.302429
1582297448601029,-0.424011,0.815491,0.25238,-0.302429
1582297448622915,-0.424133,0.815552,0.252136,-0.302368
1582297448645858,-0.424133,0.815613,0.251892,-0.302307
1582297448660865,-0.424255,0.815735,0.251404,-0.302246
1582297448683095,-0.424438,0.815796,0.250977,-0.302246
1582297448706284,-0.4245,0.815796,0.250793,-0.302307
1582297448720691,-0.424438,0.815735,0.250854,-0.302368
1582297448743590,-0.424438,0.815735,0.250854,-0.302368
1582297448765532,-0.424438,0.815735,0.250854,-0.302368
1582297448780490,-0.4245,0.815735,0.250854,-0.302368
1582297448803691,-0.4245,0.815796,0.250854,-0.302368
1582297448825496,-0.4245,0.815796,0.250793,-0.302307
1582297448840330,-0.4245,0.815796,0.250854,-0.302307
1582297448863344,-0.424561,0.815857,0.250488,-0.302307
1582297448886215,-0.424561,0.815918,0.250183,-0.302307
1582297448900229,-0.424622,0.815979,0.249817,-0.302368
1582297448923108,-0.424622,0.815979,0.249878,-0.302368
1582297448946055,-0.424683,0.81604,0.249634,-0.302307
1582297448960014,-0.424805,0.816162,0.249084,-0.302185
1582297448983152,-0.424866,0.816223,0.248657,-0.302246
1582297449005887,-0.424988,0.816284,0.248291,-0.302307
1582297449019865,-0.424866,0.816345,0.248108,-0.302429
1582297449042970,-0.424927,0.816406,0.247864,-0.302429
1582297449065738,-0.424988,0.816528,0.247498,-0.302307
1582297449080046,-0.425049,0.816711,0.246826,-0.302246
1582297449103628,-0.425049,0.816833,0.246338,-0.302246
1582297449125573,-0.425049,0.816833,0.246338,-0.302307
1582297449146590,-0.425049,0.816895,0.246155,-0.302307
1582297449163471,-0.425049,0.817017,0.245789,-0.302307
1582297449185466,-0.424988,0.817139,0.245483,-0.302307
1582297449206397,-0.424927,0.817139,0.245422,-0.302307
1582297449223304,-0.424927,0.817139,0.245422,-0.302307
1582297449246285,-0.424927,0.8172,0.245422,-0.302307
1582297449267219,-0.424927,0.8172,0.245422,-0.302307
1582297449283150,-0.424927,0.8172,0.245422,-0.302307
1582297449306090,-0.424927,0.8172,0.245422,-0.302307
1582297449327241,-0.424927,0.8172,0.245422,-0.302307
1582297449342998,-0.424927,0.8172,0.245422,-0.302307
1582297449365992,-0.424927,0.8172,0.245422,-0.302307
1582297449387069,-0.424744,0.8172,0.245483,-0.302429
1582297449402964,-0.424622,0.817322,0.245239,-0.302429
1582297449425770,-0.4245,0.817505,0.244934,-0.302429
1582297449447175,-0.424316,0.817627,0.244751,-0.302551
1582297449463664,-0.424194,0.817688,0.244568,-0.302673
1582297449485880,-0.424072,0.81781,0.244324,-0.302734
1582297449506585,-0.42395,0.817932,0.24408,-0.302856
1582297449522504,-0.423828,0.818054,0.243652,-0.302856
1582297449545452,-0.423523,0.818237,0.24353,-0.30304
1582297449568448,-0.423218,0.818298,0.243408,-0.303284
1582297449583617,-0.422974,0.818481,0.243164,-0.303345
1582297449605671,-0.422668,0.818604,0.243103,-0.303467
1582297449628239,-0.422363,0.818787,0.24292,-0.303589
1582297449643288,-0.42218,0.81897,0.242554,-0.30365
1582297449666131,-0.421997,0.819214,0.242004,-0.30365
1582297449688247,-0.421814,0.819458,0.241516,-0.303772
1582297449703023,-0.421631,0.819702,0.240845,-0.303833
1582297449725968,-0.421448,0.819824,0.24054,-0.304016
1582297449748020,-0.421143,0.819885,0.240356,-0.30426
1582297449762863,-0.420959,0.820068,0.240051,-0.304382
1582297449786211,-0.420715,0.82019,0.239807,-0.304504
1582297449815731,-0.420471,0.820313,0.239685,-0.304688
1582297449822703,-0.420288,0.820435,0.239563,-0.304688
1582297449845643,-0.419922,0.820557,0.239807,-0.304688
1582297449868623,-0.419495,0.820862,0.239807,-0.304504
1582297449882546,-0.418762,0.821289,0.239746,-0.304321
1582297449905628,-0.417358,0.821777,0.240356,-0.304504
1582297449928422,-0.415955,0.822815,0.239685,-0.304199
1582297449942585,-0.414551,0.823792,0.237976,-0.304749
1582297449965464,-0.412781,0.824341,0.237,-0.306396
1582297449988262,-0.410522,0.823547,0.238586,-0.310303
1582297450009405,-0.407654,0.820679,0.243286,-0.318054
1582297450026159,-0.40271,0.814819,0.256348,-0.328857
1582297450048106,-0.397156,0.80658,0.274414,-0.341064
1582297450069460,-0.387451,0.799622,0.300415,-0.346619
1582297450093261,-0.399597,0.792419,0.310608,-0.340393
1582297450109939,-0.412537,0.78241,0.322449,-0.337036
1582297450128883,-0.430786,0.768188,0.331665,-0.338074
1582297450145867,-0.455139,0.75061,0.337219,-0.340149
1582297450167983,-0.483093,0.73114,0.340332,-0.340942
1582297450189753,-0.511597,0.709717,0.342285,-0.342712
1582297450205691,-0.542053,0.686157,0.341187,-0.34491
1582297450228616,-0.573242,0.660828,0.336914,-0.348145
1582297450249625,-0.603638,0.634583,0.330139,-0.352051
1582297450265516,-0.631897,0.607056,0.322815,-0.357727
1582297450288470,-0.657654,0.57843,0.315247,-0.365356
1582297450309458,-0.680481,0.550537,0.306946,-0.373718
1582297450325356,-0.701172,0.523438,0.297607,-0.381836
1582297450348351,-0.720825,0.497864,0.285767,-0.388428
1582297450369631,-0.739319,0.473328,0.272888,-0.393677
1582297450385242,-0.755493,0.450256,0.25946,-0.398926
1582297450408151,-0.769287,0.429626,0.245483,-0.404236
1582297450429476,-0.781128,0.410278,0.231567,-0.409851
1582297450445104,-0.792542,0.392883,0.217834,-0.412537
1582297450468292,-0.804199,0.377502,0.20459,-0.411011
1582297450488982,-0.814087,0.364563,0.19104,-0.409668
1582297450505042,-0.820801,0.354553,0.177429,-0.411316
1582297450527818,-0.826782,0.346924,0.162048,-0.41217
1582297450550810,-0.832581,0.341064,0.146729,-0.411011
1582297450564779,-0.836853,0.336792,0.13324,-0.410583
1582297450588652,-0.840576,0.332947,0.121582,-0.409668
1582297450610595,-0.844543,0.329834,0.110901,-0.407104
1582297450624985,-0.848694,0.328552,0.10022,-0.402283
1582297450648492,-0.850769,0.328918,0.0906982,-0.39978
1582297450670746,-0.852051,0.329834,0.0830078,-0.397949
1582297450691759,-0.852844,0.331238,0.076355,-0.396484
1582297450708332,-0.852783,0.332703,0.0697632,-0.396606
1582297450731289,-0.853027,0.334595,0.0638428,-0.395447
1582297450752261,-0.852661,0.336609,0.0595703,-0.395203
1582297450768383,-0.85144,0.338379,0.0559692,-0.396851
1582297450791111,-0.851624,0.339355,0.0515747,-0.396179
1582297450812053,-0.852661,0.339722,0.0462036,-0.394287
1582297450828014,-0.853943,0.339539,0.0419312,-0.392151
1582297450851194,-0.854004,0.339233,0.0389404,-0.392517
1582297450856002,-0.854309,0.338684,0.0365601,-0.392578
1582297450879070,-0.855835,0.337463,0.0328369,-0.390686
1582297450896919,-0.857788,0.335205,0.0292358,-0.388611
1582297450915788,-0.859741,0.332703,0.026123,-0.386658
1582297450939022,-0.86084,0.330444,0.0247803,-0.386353
1582297450954120,-0.862915,0.327881,0.0227661,-0.383911
1582297450976622,-0.865295,0.325562,0.0213623,-0.380676
1582297450998757,-0.866638,0.32373,0.0219727,-0.37915
1582297451013723,-0.867004,0.322876,0.022644,-0.378967
1582297451036515,-0.866638,0.322693,0.0233154,-0.379883
1582297451058610,-0.866577,0.322571,0.0237427,-0.380127
1582297451073358,-0.866577,0.323059,0.024231,-0.3797
1582297451096650,-0.866394,0.324036,0.0247803,-0.379211
1582297451112475,-0.866211,0.325317,0.0249023,-0.378479
1582297451134200,-0.866028,0.326599,0.0250854,-0.377747
1582297451156131,-0.865662,0.328186,0.0249634,-0.377258
1582297451172090,-0.864685,0.330078,0.0239258,-0.37793
1582297451201249,-0.863892,0.331482,0.0217896,-0.378723
1582297451216308,-0.86377,0.332397,0.0209961,-0.378235
1582297451232939,-0.863037,0.33429,0.0213013,-0.378174
1582297451254073,-0.862061,0.336182,0.0218506,-0.378662
1582297451276014,-0.861633,0.337585,0.0215454,-0.378479
1582297451292771,-0.860718,0.339111,0.0211792,-0.379089
1582297451313962,-0.85907,0.34082,0.0211182,-0.381348
1582297451336651,-0.857727,0.342102,0.0222168,-0.383179
1582297451353815,-0.857361,0.342957,0.0244751,-0.383118
1582297451373917,-0.857483,0.343567,0.0272827,-0.382141
1582297451396508,-0.857849,0.343628,0.0297852,-0.381104
1582297451414443,-0.858582,0.343018,0.0319214,-0.379761
1582297451433397,-0.859131,0.342468,0.0348511,-0.378845
1582297451456387,-0.858521,0.342102,0.0394287,-0.380005
1582297451481886,-0.857666,0.342651,0.0443726,-0.380981
1582297451493426,-0.856812,0.344666,0.0491943,-0.380493
1582297451516375,-0.855225,0.348145,0.0545654,-0.380127
1582297451541103,-0.852722,0.35321,0.06073,-0.380127
1582297451554117,-0.850525,0.359619,0.0665894,-0.378052
1582297451576202,-0.84668,0.367188,0.0733643,-0.378113
1582297451593964,-0.840576,0.377808,0.0799561,-0.379944
1582297451614094,-0.833679,0.390869,0.0857544,-0.380676
1582297451636057,-0.827271,0.405701,0.0914917,-0.377686
1582297451653989,-0.820313,0.420227,0.0982666,-0.375366
1582297451674168,-0.810913,0.437256,0.105774,-0.374268
1582297451696060,-0.80011,0.458069,0.11261,-0.370605
1582297451713644,-0.788269,0.481262,0.118408,-0.364685
1582297451733819,-0.775085,0.504272,0.124756,-0.359741
1582297451757531,-0.76062,0.52771,0.13269,-0.354126
1582297451774491,-0.744873,0.552307,0.141785,-0.346558
1582297451793855,-0.727844,0.577332,0.15094,-0.337891
1582297451816516,-0.709595,0.601624,0.159668,-0.330261
1582297451834319,-0.688538,0.625793,0.169373,-0.324951
1582297451853462,-0.665283,0.649292,0.180725,-0.321228
1582297451876423,-0.641907,0.671143,0.192139,-0.3172
1582297451894168,-0.618835,0.69104,0.203735,-0.313049
1582297451914111,-0.595642,0.710754,0.213867,-0.307068
1582297451936208,-0.572693,0.730469,0.221497,-0.299011
1582297451954048,-0.550171,0.748352,0.227905,-0.292053
1582297451974322,-0.528564,0.762695,0.235229,-0.289001
1582297452003922,-0.50885,0.773987,0.241699,-0.289124
1582297452013890,-0.489868,0.784302,0.246704,-0.289795
1582297452034020,-0.472656,0.794495,0.248901,-0.288757
1582297452055731,-0.45752,0.802551,0.251892,-0.288269
1582297452073688,-0.444031,0.808899,0.255615,-0.28833
1582297452094624,-0.431702,0.814209,0.260071,-0.288147
1582297452116744,-0.420105,0.817932,0.266296,-0.289063
1582297452134526,-0.408752,0.819458,0.276001,-0.29187
1582297452155460,-0.398438,0.819885,0.285706,-0.295593
1582297452176551,-0.390442,0.820496,0.291748,-0.298584
1582297452194360,-0.384888,0.821411,0.295654,-0.2995
1582297452215299,-0.380127,0.822937,0.298706,-0.29834
1582297452236440,-0.375305,0.824646,0.300659,-0.297791
1582297452254431,-0.3703,0.825623,0.302246,-0.299683
1582297452275143,-0.366272,0.826538,0.302185,-0.302185
1582297452296236,-0.364014,0.82843,0.299377,-0.302612
1582297452314095,-0.360596,0.829407,0.30072,-0.302551
1582297452334983,-0.35791,0.828369,0.30603,-0.303284
1582297452355928,-0.358276,0.82666,0.30896,-0.304565
1582297452373876,-0.358704,0.825623,0.310059,-0.305847
1582297452394827,-0.358704,0.8255,0.309631,-0.306641
1582297452416763,-0.359924,0.826782,0.306213,-0.305115
1582297452434548,-0.361328,0.829041,0.301147,-0.302368
1582297452456661,-0.362061,0.830322,0.298767,-0.300293
1582297452475830,-0.362488,0.830261,0.298889,-0.299805
1582297452493556,-0.363892,0.830261,0.298218,-0.298767
1582297452515718,-0.364624,0.831238,0.29657,-0.296814
1582297452536583,-0.364319,0.832703,0.294678,-0.294983
1582297452560422,-0.363831,0.833984,0.293579,-0.29303
1582297452575456,-0.362793,0.834961,0.293274,-0.29187
1582297452597347,-0.362549,0.835876,0.292114,-0.29071
1582297452613277,-0.36261,0.836121,0.292175,-0.289795
1582297452636174,-0.362122,0.835938,0.293945,-0.289185
1582297452650138,-0.361084,0.835876,0.296082,-0.288574
1582297452673380,-0.360352,0.83551,0.297974,-0.288452
1582297452696014,-0.360779,0.835815,0.297302,-0.28772
1582297452709983,-0.361816,0.836426,0.295776,-0.286255
1582297452732963,-0.362,0.836365,0.296387,-0.285645
1582297452755857,-0.361694,0.83551,0.298645,-0.286072
1582297452769873,-0.361328,0.834045,0.301758,-0.287537
1582297452792943,-0.361633,0.832703,0.303833,-0.288818
1582297452815866,-0.362549,0.832642,0.303589,-0.288208
1582297452838634,-0.362793,0.833008,0.303223,-0.287231
1582297452853606,-0.361938,0.832581,0.304932,-0.287659
1582297452875770,-0.36084,0.831421,0.307861,-0.289307
1582297452889673,-0.35968,0.830322,0.309937,-0.291809
1582297452913495,-0.359009,0.829102,0.311829,-0.293945
1582297452935432,-0.359436,0.82843,0.312378,-0.294739
1582297452957375,-0.359985,0.82843,0.311462,-0.295166
1582297452973524,-0.360779,0.828613,0.309448,-0.295837
1582297452996212,-0.36145,0.828552,0.308105,-0.29657
1582297453017435,-0.362122,0.828247,0.307556,-0.297058
1582297453033308,-0.36322,0.828247,0.305908,-0.297485
1582297453056056,-0.36499,0.827881,0.30426,-0.297913
1582297453077218,-0.367126,0.827209,0.303406,-0.298096
1582297453092955,-0.36969,0.826599,0.302612,-0.297546
1582297453115897,-0.372314,0.825684,0.302124,-0.297241
1582297453143975,-0.375671,0.824341,0.301514,-0.297302
1582297453152846,-0.378845,0.822449,0.301636,-0.298279
1582297453175732,-0.382507,0.820435,0.301758,-0.299133
1582297453197163,-0.386292,0.81842,0.302551,-0.299011
1582297453212631,-0.389038,0.816345,0.304382,-0.299255
1582297453235573,-0.390259,0.814148,0.307007,-0.300903
1582297453256651,-0.391479,0.812866,0.306702,-0.303101
1582297453272472,-0.392822,0.813538,0.302185,-0.304138
1582297453295411,-0.39093,0.815247,0.299133,-0.305054
1582297453317409,-0.386536,0.817932,0.296265,-0.306213
1582297453332558,-0.381836,0.820801,0.292419,-0.308105
1582297453355255,-0.378418,0.823669,0.287109,-0.309753
1582297453378522,-0.37616,0.826355,0.281738,-0.310303
1582297453392156,-0.378479,0.826904,0.277588,-0.309692
1582297453422164,-0.387634,0.824646,0.273193,-0.30835
1582297453438540,-0.393738,0.823059,0.272888,-0.305054
1582297453452990,-0.395325,0.821533,0.27655,-0.303833
1582297453475928,-0.395996,0.821533,0.278198,-0.301331
1582297453497953,-0.395935,0.821228,0.280518,-0.30011
1582297453519812,-0.393799,0.820923,0.284851,-0.299866
1582297453535773,-0.390381,0.820557,0.289368,-0.300781
1582297453557909,-0.388245,0.821228,0.290955,-0.300354
1582297453579863,-0.387817,0.82196,0.290222,-0.299438
1582297453595733,-0.388855,0.822815,0.287781,-0.298218
1582297453618612,-0.390381,0.823059,0.285828,-0.297485
1582297453639549,-0.392212,0.822754,0.283936,-0.297546
1582297453655817,-0.394714,0.822388,0.281372,-0.297729
1582297453685484,-0.397034,0.822571,0.27887,-0.296631
1582297453699539,-0.398254,0.822754,0.279114,-0.294067
1582297453717344,-0.397339,0.822876,0.281006,-0.293274
1582297453738329,-0.395996,0.821838,0.283936,-0.295227
1582297453759570,-0.396606,0.822144,0.282471,-0.294922
1582297453776125,-0.397339,0.822754,0.281067,-0.293457
1582297453798078,-0.398132,0.82428,0.278076,-0.290955
1582297453819443,-0.398804,0.824951,0.27594,-0.290222
1582297453835969,-0.399902,0.825256,0.274048,-0.289734
1582297453858138,-0.400818,0.825256,0.272827,-0.289612
1582297453879000,-0.401367,0.8255,0.271606,-0.289185
1582297453895805,-0.401978,0.825623,0.270508,-0.289124
1582297453917940,-0.402588,0.8255,0.269897,-0.289063
1582297453938695,-0.403137,0.825256,0.269714,-0.289246
1582297453955642,-0.403381,0.825378,0.269226,-0.288879
1582297453978618,-0.403381,0.825562,0.268677,-0.289001
1582297453999734,-0.403625,0.8255,0.268127,-0.289307
1582297454015485,-0.403992,0.825623,0.267212,-0.289185
1582297454038427,-0.404175,0.825562,0.266724,-0.289673
1582297454059533,-0.404724,0.825439,0.265991,-0.290039
1582297454075494,-0.405396,0.825378,0.264832,-0.290283
1582297454098596,-0.406006,0.825073,0.264221,-0.290771
1582297454119396,-0.406189,0.824707,0.264648,-0.291199
1582297454136162,-0.405945,0.824402,0.265808,-0.291443
1582297454158106,-0.405457,0.824158,0.266663,-0.29187
1582297454179378,-0.405212,0.823914,0.267212,-0.292358
1582297454196044,-0.405212,0.823792,0.267639,-0.292419
1582297454225927,-0.405212,0.823853,0.267578,-0.292358
1582297454240881,-0.405457,0.824097,0.266602,-0.292114
1582297454255961,-0.405945,0.824219,0.265503,-0.292236
1582297454277966,-0.406128,0.82428,0.265015,-0.292236
1582297454307707,-0.406189,0.82428,0.264648,-0.292297
1582297454315736,-0.406311,0.824402,0.264282,-0.292175
1582297454345603,-0.406372,0.824524,0.263977,-0.292053
1582297454360567,-0.406494,0.824707,0.263611,-0.291748
1582297454375857,-0.406616,0.824768,0.263428,-0.291626
1582297454398526,-0.406677,0.82489,0.263123,-0.291382
1582297454420402,-0.406677,0.825195,0.262451,-0.291199
1582297454435505,-0.406433,0.8255,0.261841,-0.291077
1582297454458305,-0.40564,0.825867,0.261902,-0.291199
1582297454481239,-0.404663,0.826172,0.261963,-0.291565
1582297454495212,-0.403809,0.826843,0.261353,-0.291504
1582297454518152,-0.403015,0.827637,0.260193,-0.29126
1582297454540097,-0.402222,0.828369,0.259338,-0.291077
1582297454555040,-0.40155,0.828979,0.258606,-0.290894
1582297454577988,-0.401184,0.829529,0.257568,-0.290894
1582297454600922,-0.401184,0.829712,0.256836,-0.290894
1582297454614889,-0.401672,0.829895,0.255859,-0.290649
1582297454637819,-0.402466,0.830139,0.254272,-0.2901
1582297454661057,-0.403748,0.8302,0.252747,-0.289612
1582297454674736,-0.405151,0.830139,0.251404,-0.288879
1582297454698655,-0.406616,0.830017,0.250183,-0.288269
1582297454720964,-0.407898,0.82959,0.249634,-0.288269
1582297454734774,-0.408508,0.828979,0.25,-0.288818
1582297454758495,-0.408752,0.828247,0.250916,-0.289673
1582297454788422,-0.409363,0.827698,0.251221,-0.290161
1582297454809556,-0.409729,0.827271,0.251526,-0.290527
1582297454818515,-0.410034,0.826782,0.252075,-0.291077
1582297454840886,-0.410217,0.826355,0.252625,-0.291565
1582297454862218,-0.410278,0.825989,0.253235,-0.291931
1582297454878499,-0.410339,0.825806,0.25354,-0.292236
1582297454901114,-0.410522,0.825684,0.253418,-0.292297
1582297454922282,-0.410889,0.825684,0.252991,-0.292297
1582297454938015,-0.411072,0.825623,0.252869,-0.292297
1582297454960963,-0.411316,0.825439,0.252869,-0.292297
1582297454982108,-0.411621,0.825439,0.252625,-0.292236
1582297454997959,-0.411621,0.825439,0.252625,-0.292297
1582297455020798,-0.411621,0.825378,0.252686,-0.292297
1582297455041887,-0.411621,0.825378,0.252747,-0.292297
1582297455058702,-0.411499,0.825439,0.252686,-0.292358
1582297455088620,-0.411194,0.825439,0.252869,-0.29248
1582297455103586,-0.41095,0.825562,0.252869,-0.29248
1582297455125517,-0.410706,0.825806,0.252625,-0.29248
1582297455146680,-0.410522,0.825989,0.25238,-0.292358
1582297455161575,-0.410461,0.826172,0.252014,-0.292236
1582297455178610,-0.4104,0.826355,0.251892,-0.291992
1582297455200480,-0.4104,0.826355,0.251892,-0.291992
1582297455221258,-0.410217,0.826355,0.252075,-0.292053
1582297455238298,-0.409973,0.826233,0.252502,-0.292297
1582297455261156,-0.40979,0.826172,0.252991,-0.292419
1582297455283103,-0.409546,0.82605,0.253479,-0.292603
1582297455299049,-0.409363,0.82605,0.253662,-0.292664
1582297455321002,-0.409363,0.82605,0.253662,-0.292664
1582297455342932,-0.409424,0.826111,0.253662,-0.292542
1582297455365933,-0.409424,0.826111,0.253601,-0.292542
1582297455380873,-0.409546,0.826172,0.253174,-0.29248
1582297455402955,-0.409973,0.826294,0.252502,-0.292297
1582297455417785,-0.4104,0.826233,0.252014,-0.292114
1582297455447153,-0.410583,0.82605,0.252014,-0.292358
1582297455463612,-0.410706,0.825867,0.252258,-0.292603
1582297455477640,-0.410767,0.825562,0.252686,-0.292908
1582297455500951,-0.410706,0.825256,0.253296,-0.293335
1582297455530473,-0.410583,0.82489,0.25415,-0.293884
1582297455537419,-0.410278,0.824585,0.255188,-0.29425
1582297455560464,-0.410034,0.824341,0.255981,-0.294556
1582297455583353,-0.409851,0.824158,0.256653,-0.294739
1582297455598316,-0.409546,0.824036,0.257202,-0.295044
1582297455620500,-0.409241,0.823853,0.257935,-0.295288
1582297455643346,-0.409058,0.82373,0.258362,-0.295532
1582297455664244,-0.408875,0.823608,0.25885,-0.295715
1582297455681037,-0.408875,0.823547,0.259033,-0.295776
1582297455702978,-0.408875,0.823425,0.259338,-0.295837
1582297455717928,-0.408936,0.823303,0.259644,-0.295959
1582297455740867,-0.408875,0.82312,0.26001,-0.296143
1582297455762967,-0.408875,0.82312,0.26001,-0.296143
1582297455784829,-0.408875,0.82312,0.26001,-0.296143
1582297455808687,-0.408752,0.822998,0.260376,-0.296265
1582297455823649,-0.408691,0.822937,0.260559,-0.296387
1582297455844776,-0.40863,0.822937,0.260559,-0.296387
1582297455860584,-0.408691,0.822937,0.260559,-0.296387
1582297455891525,-0.408691,0.822937,0.260559,-0.296387
1582297455892461,-0.408691,0.822937,0.260559,-0.296326
1582297455920399,-0.408691,0.822937,0.260559,-0.296326
1582297455926777,-0.408752,0.82312,0.260071,-0.296204
1582297455949318,-0.408691,0.823242,0.259888,-0.296082
1582297455974248,-0.40863,0.823303,0.259644,-0.296143
1582297455986398,-0.40863,0.823303,0.259644,-0.296143
1582297456009188,-0.408386,0.823303,0.259888,-0.296326
1582297456026888,-0.408386,0.823303,0.259827,-0.296326
1582297456046517,-0.408386,0.823303,0.259827,-0.296326
1582297456069181,-0.408386,0.823303,0.259827,-0.296326
1582297456086014,-0.408325,0.823425,0.259949,-0.296021
1582297456105894,-0.407837,0.82373,0.260193,-0.295776
1582297456129019,-0.407166,0.823914,0.260498,-0.295776
1582297456146781,-0.406799,0.824158,0.260498,-0.295654
1582297456166219,-0.406799,0.824158,0.260498,-0.295654
1582297456188709,-0.406799,0.824158,0.260498,-0.295715
1582297456206620,-0.406799,0.824158,0.260437,-0.295715
1582297456225795,-0.40686,0.824219,0.260071,-0.295776
1582297456251714,-0.40686,0.824219,0.260071,-0.295776
1582297456266462,-0.406921,0.824036,0.260376,-0.295898
1582297456286452,-0.40686,0.823914,0.260681,-0.296021
1582297456308791,-0.40686,0.823914,0.260681,-0.296021
1582297456326827,-0.40686,0.823914,0.260681,-0.296021
1582297456346341,-0.406738,0.824097,0.260559,-0.295837
1582297456376359,-0.406433,0.823914,0.261475,-0.295959
1582297456386849,-0.406799,0.823853,0.261292,-0.295715
1582297456406511,-0.406677,0.823669,0.261292,-0.296448
1582297456429055,-0.406799,0.823853,0.260498,-0.296448
1582297456446519,-0.40686,0.823853,0.26062,-0.296326
1582297456482972,-0.407288,0.823547,0.260925,-0.296204
1582297456488917,-0.40686,0.823486,0.261475,-0.29657
1582297456506818,-0.406616,0.823486,0.261597,-0.296753
1582297456526172,-0.406128,0.823547,0.262085,-0.296875
1582297456549004,-0.406128,0.823547,0.262146,-0.296875
1582297456566669,-0.406067,0.823181,0.262939,-0.297119
1582297456586607,-0.406311,0.822998,0.263,-0.297363
1582297456611701,-0.40625,0.822876,0.263123,-0.297729
1582297456626921,-0.406128,0.822937,0.262634,-0.298157
1582297456646508,-0.405579,0.822693,0.263794,-0.298462
1582297456668515,-0.405945,0.822815,0.263245,-0.298035
1582297456686352,-0.405579,0.822632,0.26416,-0.298279
1582297456706437,-0.405579,0.822632,0.264099,-0.298279
1582297456728418,-0.404968,0.822754,0.264343,-0.298645
1582297456754156,-0.404663,0.822937,0.263977,-0.298767
1582297456767500,-0.404541,0.822937,0.264343,-0.298767
1582297456789108,-0.404785,0.822876,0.264343,-0.298401
1582297456806463,-0.404846,0.822754,0.264771,-0.298401
1582297456827967,-0.404907,0.822815,0.264771,-0.298279
1582297456849115,-0.404785,0.822937,0.264648,-0.298157
1582297456866862,-0.405029,0.822998,0.264343,-0.297852
1582297456887800,-0.405273,0.822815,0.264709,-0.297668
1582297456908983,-0.405823,0.822815,0.264404,-0.297302
1582297456926696,-0.406128,0.822632,0.264343,-0.297363
1582297456953832,-0.406494,0.822693,0.263733,-0.297302
1582297456968808,-0.406433,0.822693,0.263733,-0.297363
1582297456986541,-0.406738,0.822571,0.263672,-0.297302
1582297457009481,-0.406799,0.822327,0.264099,-0.297546
1582297457030464,-0.406799,0.822327,0.264099,-0.297546
1582297457046976,-0.406494,0.822266,0.264343,-0.297852
1582297457067352,-0.406311,0.822388,0.264221,-0.297974
1582297457088323,-0.406189,0.822388,0.264099,-0.298157
1582297457106214,-0.406189,0.822388,0.263977,-0.29834
1582297457127288,-0.406128,0.822327,0.263977,-0.298523
1582297457149149,-0.406128,0.822327,0.263977,-0.298523
1582297457166801,-0.406128,0.822327,0.263977,-0.298523
1582297457188995,-0.406128,0.822327,0.264038,-0.298584
1582297457209135,-0.406006,0.822144,0.264404,-0.298767
1582297457226890,-0.405945,0.822083,0.264648,-0.298828
1582297457249116,-0.405945,0.822083,0.264648,-0.298828
1582297457268960,-0.405945,0.822205,0.264343,-0.298767
1582297457286734,-0.405945,0.822205,0.264343,-0.298828
1582297457308852,-0.405823,0.822144,0.264648,-0.298889
1582297457328807,-0.405823,0.822144,0.264648,-0.298889
1582297457346577,-0.405823,0.822144,0.264648,-0.298889
1582297457369518,-0.405823,0.822144,0.264648,-0.298889
1582297457396561,-0.405579,0.822205,0.264832,-0.298889
1582297457406427,-0.405396,0.822266,0.264832,-0.29895
1582297457429489,-0.405396,0.822266,0.264893,-0.298889
1582297457449298,-0.405396,0.822266,0.264832,-0.298889
1582297457466300,-0.405396,0.822327,0.264832,-0.298889
1582297457488196,-0.405396,0.822327,0.264832,-0.298889
1582297457509182,-0.405396,0.822327,0.264832,-0.298889
1582297457526092,-0.405396,0.822327,0.264771,-0.298889
1582297457548091,-0.405396,0.822327,0.264771,-0.298828
1582297457586155,-0.405396,0.822327,0.264709,-0.298828
1582297457588928,-0.405396,0.822327,0.264771,-0.298828
1582297457608213,-0.405334,0.822266,0.265015,-0.298889
1582297457629061,-0.405273,0.822266,0.265076,-0.298889
1582297457645836,-0.405273,0.822266,0.265076,-0.298889
1582297457667911,-0.405273,0.822327,0.264832,-0.29895
1582297457689784,-0.405273,0.822327,0.264832,-0.298889
1582297457705615,-0.40509,0.822266,0.265198,-0.299011
1582297457728548,-0.40509,0.822266,0.265198,-0.299011
1582297457749704,-0.405273,0.822388,0.264893,-0.298828
1582297457765495,-0.405457,0.822449,0.264526,-0.298706
1582297457788391,-0.40564,0.822449,0.264282,-0.298523
1582297457809492,-0.40564,0.822449,0.264343,-0.298584
1582297457825420,-0.40564,0.822449,0.264343,-0.298584
1582297457849225,-0.40564,0.822449,0.264343,-0.298584
1582297457869386,-0.405884,0.822388,0.264221,-0.298523
1582297457886135,-0.406128,0.82251,0.263916,-0.298096
1582297457908362,-0.406311,0.822754,0.263245,-0.297852
1582297457929069,-0.40625,0.822876,0.263,-0.297668
1582297457945968,-0.406311,0.82312,0.262451,-0.297485
1582297457967953,-0.406494,0.823181,0.262024,-0.297363
1582297457989909,-0.406738,0.823425,0.261414,-0.296936
1582297458005953,-0.407043,0.823486,0.260925,-0.296753
1582297458028918,-0.407471,0.823669,0.260315,-0.296204
1582297458049856,-0.407837,0.82373,0.260071,-0.295837
1582297458065883,-0.40802,0.823669,0.260193,-0.295593
1582297458088586,-0.408386,0.823608,0.260071,-0.295349
1582297458110533,-0.408752,0.82373,0.259583,-0.294922
1582297458133473,-0.408997,0.823792,0.259277,-0.294678
1582297458148476,-0.409302,0.823853,0.259033,-0.294434
1582297458170368,-0.409546,0.82373,0.25885,-0.294434
1582297458185466,-0.409607,0.823853,0.258484,-0.294434
1582297458208546,-0.409668,0.823914,0.258057,-0.294495
1582297458230399,-0.409729,0.824097,0.257507,-0.294373
1582297458245417,-0.409729,0.824158,0.257263,-0.294373
1582297458268109,-0.409729,0.824219,0.257263,-0.294373
1582297458291045,-0.409912,0.824341,0.256836,-0.294067
1582297458312129,-0.410034,0.824402,0.256592,-0.293945
1582297458327994,-0.410217,0.824402,0.256165,-0.293945
1582297458350945,-0.410522,0.824524,0.255554,-0.293823
1582297458364903,-0.410706,0.824524,0.255371,-0.293762
1582297458387785,-0.410828,0.824402,0.255371,-0.293762
1582297458417040,-0.410828,0.824402,0.255432,-0.293762
1582297458424687,-0.411072,0.824341,0.255371,-0.29364
1582297458448622,-0.411072,0.824402,0.255371,-0.29364
1582297458470675,-0.411072,0.824402,0.255371,-0.29364
1582297458484742,-0.411011,0.824402,0.255371,-0.29364
1582297458508462,-0.411011,0.824402,0.255371,-0.29364
1582297458530460,-0.41095,0.824341,0.255493,-0.29364
1582297458545369,-0.410828,0.824402,0.255554,-0.29364
1582297458568302,-0.410828,0.824402,0.255554,-0.29364
1582297458590434,-0.410828,0.824402,0.255615,-0.29364
1582297458612288,-0.410828,0.824402,0.255615,-0.29364
1582297458628482,-0.410706,0.824341,0.25592,-0.293762
1582297458651080,-0.410583,0.824219,0.256165,-0.293884
1582297458672437,-0.410583,0.82428,0.256165,-0.293884
1582297458695960,-0.410767,0.82428,0.255981,-0.293823
1582297458710927,-0.410767,0.824219,0.255981,-0.293823
1582297458732056,-0.410767,0.82428,0.255981,-0.293823
1582297458747829,-0.411011,0.824341,0.255493,-0.293762
1582297458770769,-0.411194,0.824463,0.254883,-0.29364
1582297458791944,-0.411194,0.824585,0.254456,-0.293518
1582297458808660,-0.411133,0.824646,0.254395,-0.293518
1582297458830605,-0.411133,0.824646,0.254456,-0.293518
1582297458851701,-0.411133,0.824646,0.254395,-0.293518
1582297458868545,-0.411133,0.824829,0.253906,-0.293396
1582297458890479,-0.411133,0.825073,0.253357,-0.293274
1582297458911428,-0.411255,0.825256,0.252747,-0.293152
1582297458928339,-0.411194,0.825378,0.252319,-0.293152
1582297458950471,-0.411072,0.8255,0.252075,-0.293213
1582297458972266,-0.411011,0.825684,0.251831,-0.293152
1582297458988232,-0.410889,0.825806,0.251587,-0.293091
1582297459010311,-0.410767,0.825928,0.251343,-0.29303
1582297459032261,-0.410645,0.82605,0.25116,-0.29303
1582297459048255,-0.410645,0.826172,0.250916,-0.292908
1582297459070959,-0.410645,0.826172,0.250916,-0.292908
1582297459092908,-0.410645,0.826172,0.250916,-0.292908
1582297459108090,-0.410645,0.826172,0.250916,-0.292908
1582297459131100,-0.410645,0.826233,0.250854,-0.292908
1582297459153740,-0.410645,0.826233,0.250854,-0.292847
1582297459167770,-0.410583,0.826233,0.251099,-0.292847
1582297459190642,-0.410339,0.826233,0.251404,-0.292847
1582297459220570,-0.410217,0.826233,0.251526,-0.292786
1582297459227757,-0.410217,0.826233,0.251526,-0.292786
1582297459250479,-0.410095,0.826233,0.25177,-0.292847
1582297459273416,-0.409973,0.826172,0.252014,-0.292969
1582297459287383,-0.409912,0.826111,0.252197,-0.293091
1582297459310365,-0.409729,0.82605,0.252319,-0.293335
1582297459333323,-0.409607,0.825989,0.252686,-0.293396
1582297459347264,-0.409607,0.825867,0.253052,-0.293396
1582297459370166,-0.40979,0.825623,0.253479,-0.293518
1582297459393284,-0.409912,0.825317,0.253906,-0.293762
1582297459407066,-0.409973,0.825012,0.254517,-0.294067
1582297459431001,-0.410156,0.824646,0.255005,-0.294373
1582297459453546,-0.410339,0.82428,0.255432,-0.294739
1582297459467907,-0.410706,0.824097,0.255371,-0.294922
1582297459497816,-0.41095,0.823914,0.255188,-0.295166
1582297459512957,-0.411133,0.823975,0.2547,-0.295166
1582297459527800,-0.411255,0.824158,0.254028,-0.295105
1582297459550678,-0.411316,0.824402,0.253235,-0.295105
1582297459580847,-0.411255,0.824646,0.252625,-0.294922
1582297459594731,-0.410889,0.82489,0.252502,-0.2948
1582297459610521,-0.4104,0.825073,0.252686,-0.2948
1582297459633518,-0.409912,0.825317,0.252869,-0.294678
1582297459654448,-0.409424,0.825562,0.253174,-0.294495
1582297459670701,-0.408997,0.825684,0.25354,-0.294373
1582297459693316,-0.408447,0.825745,0.254211,-0.294312
1582297459714430,-0.408081,0.825806,0.254883,-0.294128
1582297459731219,-0.407837,0.825989,0.255127,-0.293823
1582297459753199,-0.407837,0.826172,0.255066,-0.293396
1582297459774445,-0.407837,0.826172,0.255066,-0.293335
1582297459791037,-0.407959,0.826233,0.254822,-0.293213
1582297459813148,-0.408081,0.826294,0.254517,-0.293091
1582297459834314,-0.408264,0.826355,0.254211,-0.292969
1582297459851130,-0.408386,0.826355,0.253906,-0.292908
1582297459872926,-0.408569,0.826355,0.253662,-0.292969
1582297459894754,-0.408569,0.826416,0.253601,-0.292908
1582297459911042,-0.408569,0.826416,0.253601,-0.292908
1582297459932847,-0.408752,0.826233,0.253662,-0.293091
1582297459954592,-0.408997,0.826111,0.25354,-0.293152
1582297459970551,-0.40918,0.825989,0.253601,-0.293274
1582297459993491,-0.409424,0.825745,0.253723,-0.293518
1582297460015781,-0.409668,0.825562,0.253906,-0.293579
1582297460030396,-0.409668,0.825562,0.253906,-0.293579
1582297460053341,-0.409607,0.8255,0.253967,-0.293579
1582297460083277,-0.409668,0.825378,0.254272,-0.293762
1582297460090271,-0.409607,0.825256,0.254578,-0.293823
1582297460113228,-0.409607,0.825134,0.254883,-0.293945
1582297460136108,-0.409546,0.825012,0.255188,-0.294006
1582297460150390,-0.409546,0.825012,0.25531,-0.294006
1582297460173013,-0.409546,0.825012,0.25531,-0.294006
1582297460195998,-0.409607,0.824951,0.255432,-0.294006
1582297460210084,-0.409668,0.825012,0.254883,-0.294189
1582297460232941,-0.409363,0.825012,0.25531,-0.294189
1582297460255942,-0.409668,0.825195,0.2547,-0.293823
1582297460270073,-0.409424,0.825134,0.255371,-0.293884
1582297460292739,-0.409668,0.825256,0.254639,-0.293579
1582297460315632,-0.409302,0.825256,0.255066,-0.293823
1582297460330596,-0.409363,0.825439,0.254639,-0.29364
1582297460353526,-0.409363,0.825378,0.254639,-0.29364
1582297460376466,-0.409363,0.825378,0.254639,-0.29364
1582297460390429,-0.409363,0.825317,0.254883,-0.293762
1582297460413624,-0.409424,0.825378,0.254639,-0.293762
1582297460435351,-0.409363,0.825378,0.254578,-0.293823
1582297460450285,-0.409485,0.825195,0.255005,-0.293701
1582297460473205,-0.409729,0.825012,0.255371,-0.293701
1582297460496145,-0.409607,0.825073,0.255432,-0.293579
1582297460518093,-0.409607,0.825012,0.255432,-0.293884
1582297460533260,-0.409485,0.825073,0.255432,-0.293701
1582297460555983,-0.409607,0.824768,0.256042,-0.293884
1582297460576984,-0.40979,0.824646,0.25647,-0.293579
1582297460592886,-0.409851,0.824585,0.256653,-0.293518
1582297460615891,-0.409668,0.824768,0.256531,-0.293396
1582297460638347,-0.409424,0.824829,0.256653,-0.293396
1582297460652740,-0.409424,0.824829,0.256653,-0.293396
1582297460675671,-0.409424,0.824829,0.256653,-0.293396
1582297460696666,-0.409485,0.824951,0.256409,-0.293274
1582297460713571,-0.409485,0.825073,0.256165,-0.293152
1582297460735792,-0.409607,0.825073,0.256042,-0.293091
1582297460756823,-0.409607,0.825073,0.256042,-0.293091
1582297460773403,-0.409607,0.825073,0.256042,-0.293091
1582297460795489,-0.409607,0.825073,0.255981,-0.293091
1582297460817292,-0.409607,0.825195,0.255798,-0.292908
1582297460833495,-0.409607,0.825195,0.255798,-0.292969
1582297460855662,-0.409607,0.825195,0.255798,-0.292969
1582297460877339,-0.409607,0.825195,0.255798,-0.292908
1582297460893325,-0.409546,0.825256,0.255737,-0.292969
1582297460899066,-0.409668,0.825317,0.255432,-0.292847
1582297460921014,-0.409668,0.825317,0.255432,-0.292847
1582297460943999,-0.409729,0.825317,0.255432,-0.292847
1582297460959006,-0.409729,0.825317,0.255371,-0.292847
1582297460981082,-0.409668,0.825317,0.255371,-0.292847
1582297461003785,-0.409607,0.825378,0.255432,-0.292725
1582297461019052,-0.409607,0.825439,0.255371,-0.292725
1582297461041693,-0.409607,0.825439,0.255371,-0.292725
1582297461063828,-0.409668,0.825378,0.255188,-0.292969
1582297461078787,-0.409912,0.825256,0.254944,-0.293152
1582297461101616,-0.409973,0.825073,0.255066,-0.293335
1582297461123947,-0.410217,0.824951,0.255188,-0.293457
1582297461138788,-0.410217,0.824951,0.255188,-0.293457
1582297461161409,-0.410217,0.824951,0.255127,-0.293457
1582297461192423,-0.410339,0.82489,0.255005,-0.293518
1582297461198727,-0.410645,0.82489,0.2547,-0.293457
1582297461221269,-0.410889,0.824768,0.254456,-0.293457
1582297461243290,-0.411316,0.824768,0.253967,-0.293396
1582297461259171,-0.411499,0.824707,0.253784,-0.293396
1582297461281269,-0.411621,0.824646,0.253723,-0.293457
1582297461304043,-0.411621,0.824646,0.253784,-0.293457
1582297461318943,-0.411621,0.824646,0.253784,-0.293457
1582297461341414,-0.411621,0.824646,0.253784,-0.293518
1582297461364008,-0.411621,0.824646,0.253784,-0.293518
1582297461379004,-0.41156,0.824585,0.253967,-0.293579
1582297461401761,-0.41156,0.824585,0.253967,-0.293579
1582297461423899,-0.41156,0.824585,0.253967,-0.293579
1582297461438780,-0.41156,0.824646,0.253845,-0.293518
1582297461461623,-0.41156,0.824646,0.253845,-0.293518
1582297461483674,-0.41156,0.824646,0.253845,-0.293457
1582297461498641,-0.41156,0.824646,0.253845,-0.293518
1582297461521457,-0.411438,0.824646,0.253906,-0.293518
1582297461543533,-0.411499,0.824585,0.254456,-0.293274
1582297461560304,-0.411682,0.824829,0.253479,-0.293091
1582297461581472,-0.41156,0.824646,0.253845,-0.293396
1582297461599193,-0.41156,0.825012,0.253113,-0.292969
1582297461620143,-0.41156,0.825012,0.253174,-0.29303
1582297461641286,-0.411743,0.825012,0.252869,-0.292969
1582297461659453,-0.411743,0.825012,0.25293,-0.292969
1582297461679981,-0.411804,0.825195,0.252441,-0.292664
1582297461701113,-0.411804,0.825195,0.252502,-0.292725
1582297461718876,-0.411621,0.825439,0.252197,-0.292542
1582297461747796,-0.411621,0.825439,0.252258,-0.292542
1582297461761067,-0.411682,0.825439,0.252197,-0.29248
1582297461778714,-0.411621,0.825439,0.252197,-0.292542
1582297461801985,-0.411621,0.825562,0.251953,-0.292419
1582297461820650,-0.411682,0.825562,0.251709,-0.292542
1582297461838791,-0.411682,0.825562,0.251709,-0.292542
1582297461860495,-0.411804,0.8255,0.251526,-0.292664
1582297461884431,-0.411804,0.8255,0.251526,-0.292664
1582297461899388,-0.411804,0.8255,0.251526,-0.292664
1582297461921845,-0.411743,0.8255,0.251709,-0.292664
1582297461941480,-0.411743,0.8255,0.251709,-0.292664
1582297461959418,-0.411682,0.825439,0.251892,-0.292664
1582297461981577,-0.411682,0.825439,0.251892,-0.292664
1582297462009145,-0.411682,0.825439,0.251892,-0.292664
1582297462025052,-0.411682,0.825439,0.251892,-0.292725
1582297462041480,-0.411682,0.825439,0.251892,-0.292725
1582297462061211,-0.411682,0.825439,0.251892,-0.292725
1582297462078911,-0.411682,0.825439,0.251892,-0.292725
1582297462101847,-0.411682,0.825439,0.251892,-0.292725
1582297462120859,-0.411621,0.825378,0.252075,-0.292786
1582297462139422,-0.411621,0.825378,0.252075,-0.292786
1582297462161693,-0.411621,0.825378,0.252075,-0.292847
1582297462181634,-0.411621,0.825378,0.252075,-0.292847
1582297462199024,-0.411499,0.825317,0.252502,-0.292908
1582297462221532,-0.411316,0.825317,0.252686,-0.292969
1582297462241591,-0.411255,0.825256,0.252808,-0.292969
1582297462259513,-0.411133,0.825317,0.252991,-0.292969
1582297462281411,-0.411133,0.825317,0.252991,-0.292969
1582297462301491,-0.411133,0.825317,0.25293,-0.292969
1582297462319274,-0.411133,0.825317,0.25293,-0.292969
1582297462341945,-0.411133,0.825317,0.252991,-0.29303
1582297462362541,-0.411133,0.825256,0.252991,-0.29303
1582297462379108,-0.411011,0.825134,0.253235,-0.293274
1582297462401453,-0.41095,0.825073,0.253418,-0.293457
1582297462421002,-0.41095,0.825073,0.253418,-0.293457
1582297462438945,-0.41095,0.825073,0.253418,-0.293457
1582297462461884,-0.410889,0.82489,0.253845,-0.29364
1582297462482875,-0.410828,0.824768,0.254272,-0.293701
1582297462498788,-0.410828,0.824646,0.254578,-0.293762
1582297462521723,-0.410828,0.824646,0.254578,-0.293762
1582297462542735,-0.411011,0.824646,0.254395,-0.293762
1582297462558625,-0.411011,0.824646,0.254456,-0.293762
1582297462580741,-0.410828,0.824585,0.254822,-0.293762
1582297462601752,-0.410522,0.824585,0.255249,-0.293945
1582297462618485,-0.410339,0.824585,0.255493,-0.293884
1582297462640466,-0.410278,0.824585,0.255493,-0.293884
1582297462662412,-0.410278,0.824585,0.255432,-0.293884
1582297462678535,-0.410278,0.824524,0.255737,-0.294006
1582297462700435,-0.410278,0.824402,0.255981,-0.294189
1582297462722507,-0.410278,0.824402,0.255981,-0.294189
1582297462738436,-0.410278,0.824402,0.25592,-0.294189
1582297462761085,-0.410278,0.824402,0.255981,-0.294189
1582297462782221,-0.410217,0.824402,0.255981,-0.294189
1582297462797993,-0.410217,0.824341,0.255981,-0.29425
1582297462820929,-0.410095,0.824219,0.256348,-0.294495
1582297462842866,-0.409973,0.824219,0.25647,-0.294495
1582297462858829,-0.409912,0.824219,0.256714,-0.294434
1582297462881077,-0.409912,0.824219,0.256714,-0.294434
1582297462902715,-0.409912,0.824219,0.256714,-0.294434
1582297462918134,-0.409912,0.824219,0.256714,-0.294434
1582297462940916,-0.409912,0.824219,0.256714,-0.294434
1582297462963547,-0.410034,0.82428,0.256531,-0.294373
1582297462977546,-0.410095,0.82428,0.256409,-0.294373
1582297463000444,-0.410095,0.824219,0.256409,-0.294434
1582297463023389,-0.410095,0.824219,0.256409,-0.294373
1582297463037349,-0.410095,0.824219,0.256409,-0.294434
1582297463060649,-0.410095,0.824219,0.256409,-0.294434
1582297463083282,-0.410034,0.824219,0.256531,-0.294373
1582297463097258,-0.410034,0.824219,0.256653,-0.294373
1582297463121121,-0.410034,0.824219,0.256653,-0.294312
1582297463143065,-0.410156,0.824219,0.25647,-0.294312
1582297463157606,-0.410156,0.824219,0.25647,-0.294312
1582297463181029,-0.410278,0.824219,0.256348,-0.294312
1582297463203042,-0.410217,0.824219,0.256409,-0.294312
1582297463225896,-0.410217,0.824158,0.256409,-0.294373
1582297463247964,-0.410217,0.824158,0.256409,-0.294373
1582297463262806,-0.410217,0.824158,0.256409,-0.294373
1582297463277758,-0.410095,0.824158,0.256592,-0.294434
1582297463300905,-0.410095,0.824219,0.256592,-0.294373
1582297463323580,-0.410095,0.824219,0.256592,-0.294373
1582297463344737,-0.410095,0.824219,0.256531,-0.294373
1582297463360655,-0.410156,0.824341,0.256348,-0.294189
1582297463383483,-0.410278,0.824402,0.256104,-0.294067
1582297463411545,-0.410278,0.824341,0.256165,-0.294067
1582297463420327,-0.410278,0.824341,0.256165,-0.294067
1582297463443265,-0.410278,0.824341,0.256165,-0.294067
1582297463464407,-0.410278,0.824341,0.256165,-0.294067
1582297463480357,-0.410339,0.824402,0.255859,-0.294067
1582297463503190,-0.410339,0.824402,0.255859,-0.294067
1582297463524185,-0.410339,0.824402,0.255859,-0.294067
1582297463540997,-0.410339,0.824402,0.255859,-0.294067
1582297463563065,-0.410339,0.824402,0.255859,-0.294067
1582297463585886,-0.410339,0.824402,0.255859,-0.294067
1582297463600902,-0.410339,0.824402,0.255859,-0.294067
1582297463622835,-0.410278,0.824341,0.256042,-0.294128
1582297463644787,-0.410278,0.824341,0.256042,-0.294128
1582297463660965,-0.410278,0.824341,0.256042,-0.294128
1582297463683615,-0.4104,0.824402,0.255859,-0.294067
1582297463704668,-0.4104,0.824402,0.255859,-0.294067
1582297463720577,-0.4104,0.824402,0.255859,-0.294067
1582297463743455,-0.410278,0.824341,0.255981,-0.294189
1582297463765458,-0.410278,0.82428,0.256104,-0.294189
1582297463780416,-0.410339,0.824341,0.256104,-0.294189
1582297463803296,-0.410339,0.824341,0.256104,-0.294189
1582297463825735,-0.410339,0.82428,0.256104,-0.294189
1582297463840253,-0.410339,0.82428,0.256104,-0.294189
1582297463863202,-0.410339,0.82428,0.256104,-0.294189
1582297463886075,-0.410339,0.82428,0.256104,-0.294189
1582297463907174,-0.410278,0.82428,0.256165,-0.294189
1582297463922987,-0.410278,0.82428,0.256165,-0.294189
1582297463945915,-0.410217,0.824219,0.256409,-0.294373
1582297463967863,-0.410217,0.824219,0.256409,-0.294312
1582297463982904,-0.410217,0.824158,0.256409,-0.294373
1582297464005760,-0.410217,0.824158,0.25647,-0.294373
1582297464019722,-0.410217,0.824158,0.25647,-0.294373
1582297464043674,-0.410217,0.824158,0.25647,-0.294373
1582297464065596,-0.410217,0.824158,0.256409,-0.294373
1582297464079727,-0.410217,0.824158,0.256409,-0.294373
1582297464103495,-0.410217,0.824158,0.25647,-0.294373
1582297464125437,-0.410217,0.824158,0.25647,-0.294373
1582297464140395,-0.410217,0.824158,0.25647,-0.294373
1582297464163591,-0.410217,0.824219,0.256409,-0.294373
1582297464185284,-0.410278,0.824219,0.256287,-0.294312
1582297464200288,-0.410278,0.824219,0.256287,-0.294312
1582297464223237,-0.410278,0.82428,0.256104,-0.29425
1582297464246168,-0.410217,0.82428,0.256226,-0.29425
1582297464267251,-0.410217,0.82428,0.256226,-0.29425
1582297464283149,-0.410217,0.82428,0.256226,-0.29425
1582297464305951,-0.410339,0.824341,0.256104,-0.294128
1582297464327101,-0.410339,0.82428,0.256104,-0.294189
1582297464342859,-0.410339,0.824219,0.256287,-0.29425
1582297464365795,-0.410278,0.824158,0.256409,-0.294312
1582297464386736,-0.410278,0.824219,0.256348,-0.294312
1582297464402695,-0.410278,0.824219,0.256409,-0.294312
1582297464425647,-0.410278,0.824158,0.256409,-0.294373
1582297464446630,-0.410278,0.824158,0.256409,-0.294373
1582297464463575,-0.410278,0.824158,0.256409,-0.294373
1582297464485646,-0.410278,0.824158,0.256409,-0.294373
1582297464506556,-0.410278,0.824158,0.256409,-0.294373
1582297464523369,-0.410278,0.824158,0.256409,-0.294373
1582297464545427,-0.410278,0.824158,0.256409,-0.294373
1582297464567304,-0.410278,0.824158,0.256409,-0.294373
1582297464583467,-0.410278,0.824158,0.256409,-0.294373
1582297464606148,-0.410278,0.824158,0.256409,-0.294373
1582297464634651,-0.410278,0.824158,0.256409,-0.294373
1582297464643053,-0.410217,0.824097,0.256653,-0.294495
1582297464665990,-0.410217,0.824097,0.256653,-0.294495
1582297464686988,-0.410217,0.824097,0.256653,-0.294495
1582297464702888,-0.410217,0.824097,0.256653,-0.294495
1582297464725828,-0.410217,0.824097,0.256653,-0.294495
1582297464747926,-0.410217,0.824097,0.256653,-0.294495
1582297464763726,-0.410217,0.824097,0.256653,-0.294495
1582297464785887,-0.410217,0.824097,0.256653,-0.294495
1582297464808608,-0.410217,0.824097,0.256653,-0.294495
1582297464823571,-0.410217,0.824097,0.256653,-0.294495
1582297464845744,-0.410217,0.824097,0.256653,-0.294434
1582297464868507,-0.410217,0.824097,0.256653,-0.294495
1582297464882546,-0.410217,0.824097,0.256653,-0.294434
1582297464905405,-0.410217,0.824097,0.256653,-0.294495
1582297464928346,-0.410217,0.824097,0.256653,-0.294495
1582297464942261,-0.410217,0.824097,0.256714,-0.294495
1582297464965404,-0.410217,0.824036,0.256714,-0.294495
1582297464988132,-0.410095,0.823975,0.256958,-0.294556
1582297465002845,-0.409973,0.823975,0.257141,-0.294617
1582297465026026,-0.409973,0.823975,0.257141,-0.294617
1582297465047980,-0.409973,0.823975,0.257141,-0.294617
1582297465062926,-0.410034,0.823975,0.257141,-0.294617
1582297465085864,-0.410034,0.823975,0.257141,-0.294556
1582297465107994,-0.410034,0.823975,0.257141,-0.294556
1582297465122773,-0.410156,0.824097,0.256714,-0.294495
1582297465145706,-0.410339,0.824036,0.256531,-0.294556
1582297465167844,-0.410339,0.824036,0.256531,-0.294556
1582297465182669,-0.410217,0.823914,0.256897,-0.294739
1582297465205545,-0.410095,0.823792,0.257263,-0.294861
1582297465228542,-0.410095,0.823792,0.257263,-0.294861
1582297465249681,-0.410095,0.823792,0.257263,-0.294861
1582297465265770,-0.410156,0.823792,0.257263,-0.294861
1582297465288371,-0.410156,0.82373,0.257507,-0.294861
1582297465309648,-0.410095,0.823669,0.257629,-0.294922
1582297465325420,-0.410095,0.823669,0.257629,-0.294922
1582297465356143,-0.410095,0.823669,0.257629,-0.294922
1582297465369329,-0.410156,0.823669,0.257629,-0.294861
1582297465386061,-0.410156,0.823669,0.257629,-0.294861
1582297465409201,-0.410156,0.823669,0.257629,-0.294861
1582297465429002,-0.410156,0.823669,0.257629,-0.294922
1582297465445964,-0.410095,0.823669,0.257629,-0.294922
1582297465468839,-0.410156,0.823669,0.257629,-0.294922
1582297465489783,-0.410156,0.823669,0.257629,-0.294861
1582297465505740,-0.410095,0.823669,0.257629,-0.294922
1582297465528026,-0.410156,0.823669,0.257629,-0.294922
1582297465549679,-0.410095,0.823669,0.257629,-0.294922
1582297465565583,-0.410095,0.823669,0.257629,-0.294922
1582297465588527,-0.410095,0.823669,0.257629,-0.294922
1582297465609720,-0.410095,0.823669,0.257629,-0.294922
1582297465633454,-0.410095,0.823669,0.257629,-0.294922
1582297465648404,-0.410095,0.823669,0.257629,-0.294922
1582297465670340,-0.410217,0.82373,0.257507,-0.2948
1582297465685466,-0.410278,0.82373,0.257385,-0.2948
1582297465708264,-0.410278,0.82373,0.257385,-0.2948
1582297465731137,-0.410278,0.82373,0.257385,-0.2948
1582297465746097,-0.410278,0.82373,0.257385,-0.2948
1582297465768050,-0.410461,0.82373,0.257202,-0.294678
1582297465791034,-0.410522,0.82373,0.25708,-0.294556
1582297465805985,-0.410522,0.82373,0.25708,-0.294556
1582297465827929,-0.410522,0.82373,0.257141,-0.294617
1582297465850817,-0.410522,0.82373,0.257141,-0.294617
1582297465864794,-0.410522,0.82373,0.257141,-0.294617
1582297465887886,-0.410522,0.82373,0.257141,-0.294556
1582297465911009,-0.410645,0.823792,0.256836,-0.294495
1582297465924675,-0.410645,0.823792,0.256836,-0.294495
1582297465932603,-0.410645,0.823792,0.256836,-0.294434
1582297465954745,-0.410828,0.823914,0.25647,-0.294312
1582297465976488,-0.41095,0.824036,0.256104,-0.294189
1582297465992441,-0.41095,0.823975,0.256104,-0.294189
1582297466013610,-0.41095,0.823975,0.256104,-0.294189
1582297466036441,-0.41095,0.823975,0.256104,-0.294189
1582297466052444,-0.41095,0.823975,0.256104,-0.294189
1582297466073731,-0.41095,0.823975,0.256104,-0.294189
1582297466096297,-0.41095,0.823975,0.256104,-0.294189
1582297466112448,-0.41095,0.823975,0.256104,-0.294189
1582297466134061,-0.41095,0.823975,0.256104,-0.294189
1582297466156149,-0.411011,0.824036,0.255981,-0.294189
1582297466172138,-0.411011,0.824036,0.255981,-0.294189
1582297466194097,-0.411011,0.823975,0.255981,-0.294128
1582297466216301,-0.411011,0.823975,0.255981,-0.294128
1582297466232834,-0.411011,0.824036,0.255981,-0.294128
1582297466253799,-0.411011,0.824036,0.25592,-0.294128
1582297466275684,-0.411011,0.824036,0.255981,-0.294128
1582297466292635,-0.411133,0.823975,0.255798,-0.294128
1582297466313833,-0.411194,0.823975,0.255859,-0.294128
1582297466335889,-0.411133,0.823975,0.255798,-0.294128
1582297466352582,-0.411133,0.823975,0.255859,-0.294128
1582297466373610,-0.411194,0.823975,0.255859,-0.294128
1582297466396553,-0.411194,0.823975,0.255859,-0.294128
1582297466412683,-0.411194,0.823975,0.255798,-0.294067
1582297466433704,-0.411194,0.823975,0.255798,-0.294067
1582297466456385,-0.411255,0.824036,0.255676,-0.294067
1582297466472157,-0.411255,0.824036,0.255676,-0.294067
1582297466494158,-0.411255,0.824036,0.255676,-0.294067
1582297466516240,-0.411255,0.824036,0.255676,-0.294067
1582297466532417,-0.411255,0.824036,0.255676,-0.294067
1582297466553935,-0.411255,0.824036,0.255676,-0.294067
1582297466577872,-0.411255,0.824036,0.255676,-0.294067
1582297466592838,-0.411255,0.824036,0.255676,-0.294067
1582297466613978,-0.411255,0.824036,0.255676,-0.294067
1582297466638974,-0.411255,0.824036,0.255676,-0.294067
1582297466654090,-0.411316,0.824097,0.255432,-0.293945
1582297466674020,-0.411316,0.824158,0.25531,-0.293945
1582297466696554,-0.411316,0.824158,0.25531,-0.293945
1582297466714062,-0.411316,0.824158,0.25531,-0.293945
1582297466733659,-0.411316,0.824158,0.25531,-0.293945
1582297466756578,-0.411316,0.824158,0.255249,-0.293945
1582297466774349,-0.411316,0.824158,0.255249,-0.293945
1582297466793597,-0.411316,0.824158,0.255188,-0.294006
1582297466816576,-0.411316,0.824158,0.255188,-0.294006
1582297466834194,-0.411316,0.824158,0.255188,-0.294006
1582297466853139,-0.411316,0.824158,0.255127,-0.294006
1582297466876240,-0.411316,0.824158,0.255127,-0.294006
1582297466894042,-0.411316,0.824158,0.255127,-0.294006
1582297466914040,-0.411316,0.824158,0.255127,-0.294006
1582297466935917,-0.411316,0.824158,0.255127,-0.294006
1582297466954053,-0.411316,0.824158,0.255127,-0.294006
1582297466973994,-0.411316,0.824158,0.255127,-0.294006
1582297466995797,-0.411316,0.824158,0.255127,-0.293945
1582297467021692,-0.411316,0.824158,0.255127,-0.293945
1582297467033828,-0.411316,0.824158,0.255127,-0.293945
1582297467055809,-0.411316,0.824158,0.255188,-0.293945
1582297467074233,-0.411316,0.824158,0.255127,-0.293945
1582297467093644,-0.411316,0.824219,0.255127,-0.293945
1582297467116621,-0.411316,0.824219,0.255127,-0.293945
1582297467133451,-0.411316,0.824219,0.255127,-0.293945
1582297467153391,-0.411316,0.824219,0.255127,-0.293945
1582297467176421,-0.411316,0.824158,0.255127,-0.293945
1582297467194319,-0.411316,0.824158,0.255127,-0.293945
1582297467213394,-0.411316,0.824158,0.255127,-0.293945
1582297467236110,-0.411316,0.824158,0.255127,-0.293945
1582297467254312,-0.411316,0.824158,0.255188,-0.293945
1582297467275010,-0.411316,0.824158,0.255188,-0.294006
1582297467299012,-0.411316,0.824158,0.255188,-0.293945
1582297467313911,-0.411316,0.824158,0.255188,-0.293945
1582297467335057,-0.411316,0.824158,0.255188,-0.293945
1582297467351801,-0.411316,0.824158,0.255188,-0.293945
1582297467373750,-0.411316,0.824158,0.255188,-0.293945
1582297467394693,-0.411316,0.824158,0.255188,-0.293945
1582297467411817,-0.411316,0.824158,0.255188,-0.293945
1582297467433992,-0.411316,0.824158,0.255188,-0.293945
1582297467454969,-0.411316,0.824158,0.255188,-0.293945
1582297467471487,-0.411499,0.824158,0.254944,-0.293884
1582297467494423,-0.411499,0.824158,0.254944,-0.293884
1582297467515419,-0.411499,0.82428,0.2547,-0.293762
1582297467531320,-0.411377,0.824463,0.2547,-0.293457
1582297467553311,-0.411133,0.824402,0.255188,-0.293518
1582297467575707,-0.411377,0.824463,0.2547,-0.293518
1582297467590187,-0.411255,0.824402,0.254639,-0.293884
1582297467613289,-0.41156,0.824341,0.254456,-0.293823
1582297467636041,-0.411926,0.824219,0.254272,-0.293823
1582297467650319,-0.411926,0.824036,0.254578,-0.294006
1582297467673054,-0.411621,0.824097,0.254944,-0.294067
1582297467695955,-0.411377,0.824158,0.255249,-0.293945
1582297467710842,-0.411194,0.824158,0.255554,-0.293823
1582297467732879,-0.411072,0.824219,0.255737,-0.293762
1582297467755781,-0.411072,0.824219,0.255676,-0.293762
1582297467769683,-0.411255,0.824219,0.255371,-0.293701
1582297467792888,-0.411438,0.824097,0.255371,-0.293884
1582297467815729,-0.411682,0.823975,0.255188,-0.293945
1582297467830018,-0.411682,0.823975,0.255249,-0.293884
1582297467853459,-0.411804,0.823975,0.255188,-0.293945
1582297467875407,-0.411438,0.82373,0.256165,-0.294189
1582297467890363,-0.411377,0.823914,0.25592,-0.294006
1582297467913300,-0.411255,0.823792,0.256287,-0.29425
1582297467935505,-0.411377,0.823975,0.25592,-0.293884
1582297467950402,-0.411499,0.823975,0.255615,-0.293823
1582297467973426,-0.411499,0.823975,0.255676,-0.293884
1582297467996078,-0.411621,0.823975,0.255432,-0.293823
1582297468017215,-0.411621,0.823975,0.255432,-0.293884
1582297468032985,-0.411621,0.823975,0.255432,-0.293884
1582297468055916,-0.411621,0.823975,0.255432,-0.293884
1582297468077373,-0.411621,0.823975,0.255432,-0.293884
1582297468092876,-0.41156,0.823914,0.255676,-0.293884
1582297468115806,-0.41156,0.823914,0.255676,-0.293884
1582297468136786,-0.411621,0.823975,0.255493,-0.293823
1582297468152659,-0.411682,0.823975,0.255371,-0.293823
1582297468175600,-0.411682,0.823975,0.255371,-0.293823
1582297468196708,-0.411682,0.823975,0.255371,-0.293823
1582297468213495,-0.411682,0.823975,0.255371,-0.293823
1582297468235437,-0.411682,0.823975,0.255371,-0.293823
1582297468256531,-0.411682,0.823975,0.255371,-0.293823
1582297468273344,-0.411682,0.823975,0.255371,-0.293823
1582297468295324,-0.411682,0.823975,0.255371,-0.293823
1582297468317281,-0.411804,0.824097,0.255066,-0.29364
1582297468333238,-0.411865,0.824158,0.254822,-0.293579
1582297468356116,-0.411865,0.824158,0.254822,-0.293579
1582297468377323,-0.411865,0.824158,0.254822,-0.29364
1582297468393027,-0.411865,0.824097,0.254883,-0.29364
1582297468416000,-0.411865,0.824158,0.254883,-0.29364
1582297468436902,-0.411926,0.824219,0.254578,-0.293518
1582297468452859,-0.411865,0.824219,0.254639,-0.293579
1582297468475802,-0.411865,0.824219,0.254639,-0.293579
1582297468496953,-0.411865,0.824158,0.254822,-0.29364
1582297468512764,-0.411865,0.824158,0.254822,-0.29364
1582297468535946,-0.411865,0.824158,0.254822,-0.29364
1582297468558575,-0.411865,0.824158,0.254822,-0.293579
1582297468573532,-0.411865,0.824158,0.254822,-0.293579
1582297468595755,-0.411865,0.824158,0.254822,-0.293579
1582297468618413,-0.411926,0.824158,0.254639,-0.293579
1582297468633422,-0.411926,0.824158,0.254639,-0.293579
1582297468655373,-0.412048,0.824219,0.254456,-0.293457
1582297468685646,-0.412048,0.824158,0.254517,-0.293457
1582297468692225,-0.412048,0.824158,0.254517,-0.293518
1582297468715375,-0.411987,0.824158,0.254639,-0.293579
1582297468738105,-0.411987,0.824158,0.254578,-0.293579
1582297468752062,-0.411987,0.824158,0.254639,-0.293579
1582297468775991,-0.412109,0.824158,0.254456,-0.293518
1582297468798961,-0.412109,0.824158,0.254456,-0.293579
1582297468812891,-0.412109,0.824158,0.254456,-0.293579
1582297468835837,-0.412109,0.824158,0.254456,-0.293579
1582297468858178,-0.41217,0.824158,0.254333,-0.293579
1582297468872731,-0.41217,0.824158,0.254333,-0.293518
1582297468895731,-0.41217,0.824158,0.254333,-0.293518
1582297468917673,-0.412292,0.824219,0.254089,-0.293396
1582297468932572,-0.412292,0.82428,0.253845,-0.293396
1582297468955577,-0.412354,0.824341,0.253662,-0.293396
1582297468978508,-0.412476,0.824341,0.25354,-0.293335
1582297468992454,-0.412537,0.824341,0.253418,-0.293335
1582297469015399,-0.412537,0.824341,0.253418,-0.293335
1582297469038296,-0.412537,0.824341,0.253418,-0.293335
1582297469059289,-0.412537,0.824341,0.253418,-0.293335
1582297469075239,-0.412598,0.82428,0.253296,-0.293396
1582297469098131,-0.412659,0.824402,0.253052,-0.293335
1582297469119072,-0.412659,0.824402,0.253052,-0.293335
1582297469136026,-0.412659,0.824402,0.253113,-0.293335
1582297469157980,-0.412659,0.824463,0.25293,-0.293274
1582297469179258,-0.412659,0.824463,0.25293,-0.293274
1582297469195912,-0.412659,0.824524,0.252625,-0.293213
1582297469217817,-0.412659,0.824524,0.252625,-0.293213
1582297469239300,-0.41272,0.824585,0.252502,-0.293213
1582297469255713,-0.41272,0.824524,0.252502,-0.293213
1582297469277863,-0.412781,0.824646,0.252258,-0.293152
1582297469299752,-0.412781,0.824646,0.252258,-0.293152
1582297469315549,-0.412781,0.824646,0.252258,-0.293152
1582297469338487,-0.412781,0.824646,0.252258,-0.293152
1582297469359489,-0.412781,0.824646,0.252258,-0.293152
1582297469375436,-0.41272,0.824646,0.252258,-0.293213
1582297469398395,-0.41272,0.824646,0.252258,-0.293213
1582297469419291,-0.41272,0.824646,0.252258,-0.293213
1582297469435411,-0.41272,0.824646,0.252258,-0.293213
1582297469458173,-0.41272,0.824646,0.252319,-0.293213
1582297469480309,-0.41272,0.824646,0.252319,-0.293213
1582297469496064,-0.41272,0.824585,0.252319,-0.293213
1582297469525996,-0.41272,0.824585,0.252319,-0.293213
1582297469540943,-0.41272,0.824585,0.252441,-0.293213
1582297469555911,-0.41272,0.824585,0.252441,-0.293213
1582297469577847,-0.41272,0.824585,0.252441,-0.293213
1582297469600835,-0.41272,0.824585,0.252441,-0.293213
1582297469614754,-0.41272,0.824585,0.252441,-0.293213
1582297469637756,-0.41272,0.824585,0.252441,-0.293213
1582297469660628,-0.41272,0.824585,0.252441,-0.293213
1582297469674634,-0.41272,0.824585,0.252502,-0.293213
1582297469698523,-0.41272,0.824585,0.252441,-0.293213
1582297469720523,-0.41272,0.824585,0.252441,-0.293213
1582297469735423,-0.41272,0.824585,0.252502,-0.293213
1582297469758365,-0.412842,0.824585,0.252319,-0.293152
1582297469795700,-0.412842,0.824585,0.252319,-0.293152
1582297469798262,-0.412842,0.824585,0.252319,-0.293152
1582297469818293,-0.412842,0.824585,0.25238,-0.293152
1582297469840334,-0.412842,0.824585,0.25238,-0.293152
1582297469855102,-0.412842,0.824585,0.25238,-0.293152
1582297469878041,-0.412842,0.824585,0.25238,-0.293152
1582297469900985,-0.41272,0.824524,0.252563,-0.293213
1582297469915029,-0.41272,0.824524,0.252625,-0.293213
1582297469937883,-0.41272,0.824524,0.252625,-0.293213
1582297469960826,-0.41272,0.824524,0.252625,-0.293213
1582297469981929,-0.41272,0.824524,0.252625,-0.293213
1582297469997782,-0.41272,0.824524,0.252625,-0.293213
1582297470020668,-0.41272,0.824524,0.252625,-0.293213
1582297470042003,-0.412781,0.824524,0.252625,-0.293213
1582297470058559,-0.412781,0.824524,0.252441,-0.293213
1582297470080757,-0.412781,0.824524,0.252502,-0.293213
1582297470102267,-0.412781,0.824524,0.252502,-0.293213
1582297470118545,-0.412781,0.824524,0.252502,-0.293213
1582297470140350,-0.412781,0.824463,0.252747,-0.293274
1582297470162283,-0.41272,0.824341,0.252991,-0.293396
1582297470178306,-0.41272,0.824341,0.252991,-0.293396
1582297470200225,-0.41272,0.824402,0.252991,-0.293396
1582297470222132,-0.41272,0.824341,0.252991,-0.293396
1582297470246059,-0.41272,0.824341,0.252991,-0.293396
1582297470261018,-0.41272,0.824341,0.253052,-0.293396
1582297470282154,-0.41272,0.824341,0.253052,-0.293396
1582297470297933,-0.41272,0.824341,0.253052,-0.293396
1582297470320858,-0.41272,0.824341,0.253052,-0.293396
1582297470349267,-0.412659,0.82428,0.253235,-0.293518
1582297470357907,-0.412659,0.82428,0.253235,-0.293518
1582297470380747,-0.412659,0.82428,0.253235,-0.293518
1582297470401783,-0.41272,0.82428,0.253174,-0.293457
1582297470417608,-0.41272,0.82428,0.253174,-0.293457
1582297470440544,-0.41272,0.824219,0.253357,-0.293518
1582297470463476,-0.41272,0.824219,0.253357,-0.293518
1582297470478435,-0.41272,0.824219,0.253357,-0.293518
1582297470500669,-0.412781,0.824219,0.253235,-0.293457
1582297470523376,-0.412781,0.824219,0.253296,-0.293457
1582297470538276,-0.412781,0.824219,0.253296,-0.293396
1582297470560362,-0.412781,0.824219,0.253296,-0.293396
1582297470583218,-0.412781,0.824219,0.253296,-0.293457
1582297470597438,-0.412781,0.824219,0.253296,-0.293457
1582297470620058,-0.412781,0.824219,0.253357,-0.293457
1582297470643001,-0.412781,0.824219,0.253357,-0.293457
1582297470656962,-0.412781,0.824219,0.253296,-0.293396
1582297470687920,-0.412842,0.82428,0.253052,-0.293335
1582297470703021,-0.412842,0.82428,0.253052,-0.293335
1582297470717807,-0.412842,0.82428,0.253113,-0.293335
1582297470740773,-0.412842,0.82428,0.253113,-0.293335
1582297470762896,-0.412842,0.82428,0.253113,-0.293335
1582297470777641,-0.412842,0.82428,0.253113,-0.293335
1582297470800575,-0.412842,0.82428,0.253113,-0.293335
1582297470823515,-0.412842,0.82428,0.253113,-0.293335
1582297470837540,-0.412903,0.82428,0.253113,-0.293335
1582297470860421,-0.412903,0.82428,0.253113,-0.293274
1582297470883418,-0.412964,0.82428,0.25293,-0.293274
1582297470905299,-0.413086,0.82428,0.252808,-0.293213
1582297470920496,-0.413086,0.82428,0.252808,-0.293274
1582297470943507,-0.413025,0.824158,0.253113,-0.293457
1582297470948385,-0.413025,0.824097,0.253296,-0.293457
1582297470966859,-0.413025,0.824097,0.253296,-0.293457
1582297470986349,-0.413086,0.824097,0.253235,-0.293396
1582297471009021,-0.413086,0.824097,0.253235,-0.293396
1582297471026370,-0.413086,0.824097,0.253235,-0.293396
1582297471046120,-0.413086,0.824097,0.253235,-0.293396
1582297471068854,-0.413147,0.824158,0.253113,-0.293335
1582297471085023,-0.413269,0.824097,0.25293,-0.293335
1582297471106182,-0.413269,0.824097,0.252991,-0.293396
1582297471128750,-0.413147,0.824097,0.253174,-0.293457
1582297471160153,-0.413147,0.824097,0.253113,-0.293457
