1582296270.00
64.000000
-0.00
-0.00
-0.00
-0.00
-0.00
-0.00
-0.00
-0.00
-0.00
-0.00
0.00
0.01
0.01
-0.00
-0.03
-0.05
-0.05
0.00
0.13
0.36
0.66
1.01
1.37
1.72
2.06
2.40
2.79
3.24
3.80
4.42
5.06
5.66
6.20
6.68
7.15
7.68
8.31
9.14
10.09
11.04
11.88
12.56
13.14
13.76
14.65
15.96
17.91
20.32
22.90
25.38
27.58
29.57
31.68
34.32
37.81
42.54
48.15
54.10
59.83
64.97
69.58
74.14
79.34
85.71
93.76
103.00
112.62
121.73
129.77
136.75
143.30
150.75
157.77
166.64
177.95
191.79
206.97
220.57
228.25
225.36
208.53
176.87
132.76
80.05
23.07
-34.94
-92.44
-149.16
-205.23
-260.37
-313.74
-363.87
-409.83
-450.91
-486.50
-515.74
-537.23
-549.22
-549.96
-538.37
-514.21
-478.67
-433.88
-382.45
-327.02
-269.84
-212.63
-156.66
-102.95
-52.37
-5.91
35.58
71.42
101.35
125.51
144.39
158.71
169.19
176.42
180.83
182.68
182.21
179.69
175.46
169.92
163.50
156.52
149.24
141.79
134.24
126.63
119.01
111.43
103.97
96.69
89.65
82.88
76.40
70.21
64.32
58.75
53.50
48.59
44.01
39.77
35.86
32.27
29.01
26.05
23.40
21.06
19.02
17.28
15.83
14.66
13.76
13.10
12.67
12.47
12.46
12.64
12.99
13.50
14.14
14.91
15.79
16.77
17.87
19.07
20.37
21.78
23.27
24.81
26.36
27.85
29.17
30.19
30.77
30.76
30.04
28.51
26.12
22.87
18.87
14.19
9.04
3.66
-1.70
-6.79
-11.39
-15.32
-18.47
-20.76
-22.19
-22.82
-22.75
-22.08
-20.96
-19.50
-17.81
-15.96
-14.01
-11.97
-9.84
-7.65
-5.41
-3.11
-0.75
1.66
4.13
6.67
9.29
12.01
14.79
17.59
20.42
23.27
26.18
29.17
32.31
35.66
39.30
43.16
47.17
51.32
55.61
60.06
64.70
69.58
74.79
80.45
86.36
92.43
98.58
104.77
110.99
117.22
123.48
129.81
136.28
142.57
148.43
153.64
157.96
161.08
162.55
161.72
157.61
151.95
145.27
137.93
130.17
122.18
114.12
106.11
98.27
90.75
83.73
77.03
70.59
64.42
58.56
53.03
47.81
42.87
38.19
33.79
29.44
25.08
20.74
16.50
12.42
8.45
4.47
0.35
-3.98
-8.63
-13.52
-18.37
-22.92
-27.05
-30.85
-34.65
-38.87
-43.85
-49.77
-56.43
-63.42
-70.29
-76.79
-83.11
-89.74
-97.35
-106.46
-117.20
-129.19
-141.78
-154.24
-166.18
-177.60
-188.95
-200.92
-214.41
-230.40
-249.71
-272.46
-297.49
-322.01
-342.01
-353.35
-353.25
-341.39
-320.06
-293.17
-264.70
-237.45
-212.50
-189.72
-168.57
-148.87
-130.90
-115.08
-101.54
-89.96
-79.71
-70.21
-61.19
-52.69
-45.03
-38.54
-33.44
-29.73
-27.29
-25.92
-25.40
-25.54
-26.21
-27.31
-28.73
-30.39
-32.33
-34.77
-38.23
-43.41
-50.93
-60.79
-71.83
-81.70
-87.07
-84.77
-72.90
-51.76
-23.92
6.47
35.02
58.36
74.84
84.64
89.12
90.15
89.42
88.18
87.12
86.50
86.25
86.05
85.53
84.40
82.57
80.21
77.72
75.60
74.24
73.87
74.43
75.58
76.73
77.25
76.59
74.43
70.88
66.37
61.48
56.78
52.64
49.12
46.02
43.12
40.15
37.02
33.63
29.92
25.80
21.22
16.27
11.18
6.37
2.19
-1.27
-4.25
-7.29
-11.04
-15.90
-21.90
-28.61
-35.29
-41.26
-46.15
-50.09
-53.74
-58.09
-64.16
-72.66
-83.56
-95.79
-107.12
-114.48
-114.76
-105.88
-87.66
-62.15
-33.07
-4.76
19.22
36.95
48.35
54.69
57.81
59.40
60.61
62.01
63.73
65.59
67.31
68.53
68.92
68.30
66.70
64.39
61.83
59.63
58.29
58.08
58.91
60.27
61.38
61.45
59.96
56.84
52.56
47.88
43.60
40.20
37.75
35.90
34.06
31.76
28.83
25.45
22.09
19.20
17.02
15.41
13.93
12.02
9.30
5.68
1.44
-2.97
-7.13
-10.90
-14.49
-18.36
-23.03
-28.78
-35.45
-42.51
-49.24
-55.07
-59.81
-63.85
-68.01
-73.33
-80.74
-90.70
-102.81
-115.59
-126.52
-132.50
-130.72
-119.65
-99.74
-73.53
-44.88
-17.84
4.55
21.00
31.90
38.78
43.47
47.44
51.55
56.05
60.71
65.12
68.75
71.17
72.04
71.39
69.54
67.09
64.77
63.23
62.81
63.51
65.01
66.71
67.96
68.13
66.85
64.10
60.18
55.67
51.22
47.32
44.15
41.57
39.19
36.58
33.46
29.77
25.75
21.81
18.36
15.65
13.59
11.80
9.70
6.82
3.02
-1.40
-5.90
-9.97
-13.35
-16.21
-19.03
-22.41
-26.77
-32.14
-38.15
-44.15
-49.46
-53.68
-56.85
-59.49
-62.55
-67.11
-74.08
-83.80
-95.64
-107.83
-117.60
-121.82
-117.93
-104.95
-83.93
-57.84
-30.66
-6.15
13.24
26.73
35.10
39.95
43.02
45.60
48.43
51.64
54.97
57.95
60.09
61.03
60.66
59.16
56.99
54.78
53.16
52.56
53.15
54.70
56.73
58.57
59.54
59.12
57.14
53.76
49.50
45.09
41.22
38.33
36.47
35.21
33.86
31.79
28.63
24.54
20.09
16.02
12.94
11.06
10.14
9.62
8.83
7.25
4.68
1.24
-2.74
-6.80
-10.61
-14.06
-17.32
-20.73
-24.65
-29.26
-34.40
-39.67
-44.50
-48.48
-51.50
-53.83
-56.09
-59.15
-63.87
-70.88
-80.19
-90.86
-100.88
-107.44
-107.67
-99.63
-83.19
-60.25
-34.30
-9.28
11.63
26.76
36.15
40.98
42.88
43.35
43.39
43.53
43.97
44.63
45.31
45.71
45.50
44.47
42.64
40.29
37.94
36.18
35.43
35.85
37.22
39.00
40.49
41.09
40.43
38.54
35.75
32.64
29.76
27.50
25.92
24.81
23.85
22.68
21.08
19.04
16.70
14.27
11.88
9.53
7.12
4.53
1.72
-1.23
-4.07
-6.58
-8.65
-10.41
-12.22
-14.59
-17.91
-22.33
-27.64
-33.30
-38.62
-43.04
-46.33
-48.68
-50.75
-53.51
-57.97
-64.72
-73.57
-83.23
-91.37
-95.15
-92.10
-81.00
-62.49
-39.02
-14.11
8.72
26.90
39.38
46.56
49.71
50.33
49.66
48.45
47.06
45.60
44.16
42.79
41.57
40.56
39.76
39.21
38.94
39.02
39.48
40.26
41.20
42.01
42.32
41.80
40.24
37.62
34.15
30.20
26.20
22.62
19.69
17.48
15.83
14.48
13.11
11.45
9.33
6.72
3.69
0.37
-3.05
-6.42
-9.66
-12.79
-15.92
-19.22
-22.84
-26.89
-31.38
-36.14
-40.90
-45.30
-49.04
-52.05
-54.57
-57.25
-60.96
-66.48
-74.08
-83.05
-91.76
-97.79
-98.71
-92.83
-79.83
-60.99
-38.85
-16.57
3.03
18.09
28.07
33.61
36.15
37.30
38.38
40.16
42.72
45.69
48.48
50.48
51.27
50.69
48.86
46.17
43.26
40.78
39.31
39.17
40.23
42.00
43.72
44.67
44.34
42.56
39.51
35.56
31.13
26.51
21.89
17.37
13.03
8.99
5.42
2.41
-0.05
-2.10
-3.99
-5.92
-8.07
-10.47
-13.04
-15.66
-18.19
-20.54
-22.73
-24.94
-27.43
-30.42
-33.93
-37.74
-41.47
-44.71
-47.33
-49.50
-51.76
-54.84
-59.51
-66.24
-74.98
-84.88
-94.13
-100.23
-100.59
-93.38
-78.30
-56.94
-32.46
-8.63
11.23
25.22
33.03
35.81
35.43
33.83
32.51
32.25
33.21
35.12
37.63
40.41
43.30
46.22
49.07
51.68
53.88
55.54
56.65
57.32
57.63
57.54
56.75
54.94
51.90
47.69
42.69
37.40
32.31
27.67
23.56
19.86
16.39
12.93
9.26
5.18
0.57
-4.53
-9.89
-15.12
-19.88
-24.02
-27.65
-31.10
-34.67
-38.56
-42.71
-46.90
-50.78
-54.10
-56.66
-58.53
-59.96
-61.50
-63.95
-68.22
-75.00
-84.36
-95.33
-105.83
-112.94
-113.76
-106.29
-90.33
-67.62
-41.40
-15.40
7.25
24.84
37.25
45.50
51.06
55.21
58.75
61.90
64.63
66.80
68.26
68.90
68.61
67.35
65.22
62.55
59.95
58.05
57.33
57.85
59.26
60.89
62.01
62.09
60.88
58.48
55.16
51.30
47.28
43.38
39.77
36.46
33.35
30.27
27.11
23.82
20.49
17.24
14.15
11.17
8.15
4.84
1.08
-3.14
-7.64
-12.13
-16.36
-20.33
-24.27
-28.55
-33.44
-38.98
-44.85
-50.56
-55.69
-60.09
-64.03
-68.13
-73.21
-80.07
-89.07
-99.78
-110.74
-119.53
-123.25
-119.46
-107.10
-87.05
-62.03
-35.79
-11.99
6.88
19.94
27.81
31.98
34.21
35.94
38.03
40.77
43.97
47.16
49.77
51.27
51.38
50.13
47.89
45.27
42.98
41.65
41.63
42.86
44.89
47.05
48.59
48.96
47.91
45.52
42.08
38.03
33.80
29.76
26.19
23.22
20.83
18.85
17.00
14.99
12.51
9.44
5.83
1.89
-2.01
-5.56
-8.62
-11.26
-13.87
-16.93
-20.85
-25.71
-31.28
-37.00
-42.26
-46.62
-50.05
-52.96
-56.16
-60.60
-67.06
-75.83
-86.38
-97.18
-105.80
-109.50
-106.00
-94.38
-75.52
-52.07
-27.59
-5.50
11.84
23.66
30.60
34.15
35.98
37.38
39.13
41.50
44.38
47.42
50.12
52.03
52.87
52.64
51.65
50.44
49.55
49.43
50.20
51.68
53.44
54.86
55.36
54.57
52.43
49.23
45.52
41.82
38.47
35.45
32.50
29.35
25.94
22.45
19.23
16.49
14.15
11.85
9.13
5.73
1.71
-2.54
-6.53
-9.90
-12.60
-14.87
-17.13
-19.80
-23.18
-27.43
-32.48
-38.13
-44.05
-49.81
-55.00
-59.46
-63.38
-67.38
-72.39
-79.33
-88.62
-99.66
-110.59
-118.56
-120.45
-113.98
-98.67
-76.13
-49.68
-23.33
-0.51
16.82
28.39
35.28
39.18
41.68
43.90
46.37
49.17
52.09
54.77
56.84
58.01
58.14
57.32
55.87
54.35
53.34
53.29
54.36
56.29
58.48
60.12
60.47
59.10
56.01
51.67
46.79
42.18
38.45
35.90
34.44
33.64
32.90
31.72
29.84
27.34
24.53
21.79
19.31
17.07
14.75
11.98
8.41
3.96
-1.15
-6.50
-11.61
-16.18
-20.23
-24.08
-28.26
-33.13
-38.81
-44.99
-51.10
-56.54
-60.95
-64.43
-67.54
-71.15
-76.18
-83.31
-92.57
-103.06
-112.86
-119.24
-119.41
-111.38
-94.85
-71.53
-44.74
-18.45
3.91
20.41
30.82
36.37
38.95
40.38
41.92
44.17
47.15
50.53
53.77
56.34
57.80
57.90
56.69
54.54
52.05
49.97
48.89
49.10
50.45
52.34
53.96
54.53
53.55
51.01
47.28
43.05
38.97
35.54
32.85
30.68
28.60
26.16
23.11
19.47
15.49
11.55
7.92
4.70
1.71
-1.34
-4.73
-8.55
-12.67
-16.85
-20.85
-24.63
-28.41
-32.51
-37.14
-42.32
-47.75
-53.04
-57.98
-62.78
-67.80
-73.28
-78.95
-84.12
-87.93
-89.62
-88.52
-83.68
-73.50
-55.64
-27.80
11.03
59.44
113.58
168.26
218.60
261.29
294.59
317.43
328.38
325.41
306.94
273.31
227.65
175.35
122.41
73.50
30.56
-7.21
-42.14
-76.82
-113.19
-152.53
-195.56
-242.19
-291.05
-338.90
-380.92
-411.80
-427.45
-426.45
-410.47
-383.36
-349.52
-312.42
-274.07
-235.37
-197.11
-160.48
-126.87
-97.08
-70.60
-45.63
-19.94
7.89
37.61
67.38
94.67
117.64
136.09
151.56
166.61
183.82
205.11
231.24
261.55
293.70
323.41
344.92
352.13
340.60
309.41
262.04
205.58
148.57
98.36
59.24
31.94
14.68
4.66
-0.60
-2.80
-2.97
-1.95
-0.72
-0.25
-1.30
-4.01
-7.76
-11.37
-13.65
-13.94
-12.48
-10.42
-9.39
-10.78
-15.09
-21.68
-29.08
-35.65
-40.42
-43.50
-45.96
-49.16
-54.01
-60.46
-67.60
-74.19
-79.25
-82.50
-84.37
-85.77
-87.68
-90.97
-96.30
-104.19
-115.02
-128.84
-145.11
-162.36
-178.04
-188.68
-190.62
-181.05
-159.06
-126.18
-86.24
-44.29
-5.09
28.30
55.18
77.00
96.34
115.68
136.49
158.90
182.04
204.51
224.85
241.68
253.68
259.63
258.69
251.02
238.17
223.15
209.58
200.49
197.08
198.16
200.63
200.79
195.88
185.23
170.35
154.17
139.72
128.98
122.29
118.44
115.34
110.80
103.26
92.00
77.12
59.33
39.69
19.58
0.49
-16.04
-28.92
-37.74
-43.02
-45.96
-47.96
-50.00
-52.38
-54.80
-56.96
-59.27
-63.10
-70.74
-84.83
-107.77
-141.11
-184.90
-237.10
-293.35
-347.09
-390.51
-416.16
-418.85
-397.57
-356.35
-303.72
-250.69
-207.69
-181.72
-174.65
-183.29
-201.11
-220.69
-236.11
-244.21
-244.73
-239.45
-231.21
-222.79
-216.18
-211.97
-209.07
-204.96
-196.41
-180.61
-156.20
-123.61
-85.10
-44.25
-5.39
27.16
49.88
61.17
62.04
56.46
50.35
49.87
59.29
79.61
108.54
141.59
174.08
202.73
226.71
247.77
269.61
296.80
333.32
381.11
438.72
500.89
559.40
605.18
630.98
633.53
614.31
578.58
533.28
484.70
437.22
393.04
352.93
317.08
285.56
258.30
234.74
213.77
194.00
174.37
154.55
135.15
117.30
102.00
89.65
79.77
71.26
62.91
53.89
44.02
33.68
23.50
13.95
5.05
-3.60
-12.54
-22.14
-32.44
-43.14
-53.90
-64.61
-75.55
-87.31
-100.46
-115.24
-131.33
-147.98
-164.40
-180.27
-195.99
-212.64
-231.52
-253.58
-278.85
-306.44
-334.95
-363.04
-390.06
-416.31
-442.88
-471.42
-503.91
-542.33
-587.92
-640.03
-695.06
-746.20
-784.80
-803.02
-796.69
-767.01
-719.97
-663.92
-606.47
-552.32
-502.94
-457.81
-416.16
-377.92
-343.62
-313.52
-286.93
-262.28
-237.86
-212.67
-186.94
-161.89
-139.17
-119.89
-104.23
-91.36
-79.91
-68.67
-57.07
-45.48
-34.87
-26.40
-20.81
-18.12
-17.60
-18.17
-18.71
-18.47
-17.27
-15.26
-12.79
-9.98
-6.72
-2.59
2.89
10.02
18.80
28.87
39.62
50.36
60.51
69.72
77.87
84.92
90.89
95.79
99.60
102.38
104.28
105.66
106.97
108.66
111.08
114.35
118.39
122.92
127.66
132.42
137.18
142.12
147.51
153.56
160.30
167.60
175.16
182.66
189.86
196.66
203.15
209.73
217.06
226.03
237.36
251.00
265.70
279.03
287.80
289.09
281.23
264.37
240.51
212.93
185.39
161.43
143.70
133.63
131.04
134.03
139.28
142.87
141.46
133.38
119.16
101.21
82.70
66.27
53.10
42.70
33.52
23.98
13.40
2.49
-6.72
-11.43
-8.78
3.36
25.58
56.27
91.33
124.81
150.51
164.20
165.50
158.26
149.19
145.20
150.67
166.05
188.21
212.03
232.29
245.02
247.87
240.18
222.92
198.60
171.04
144.75
123.84
111.25
108.50
115.87
132.88
158.34
190.16
225.00
258.46
285.83
303.26
308.72
302.33
285.89
261.87
232.48
199.28
163.41
126.38
90.76
60.56
40.61
35.31
47.09
75.12
115.16
160.34
202.88
236.07
255.66
260.47
251.96
233.36
208.42
180.54
152.19
124.79
98.97
74.86
52.44
31.63
12.32
-5.75
-22.99
-39.88
-56.86
-74.27
-92.34
-111.30
-131.48
-153.05
-175.86
-199.12
-221.50
-241.53
-258.43
-272.52
-285.29
-298.58
-313.41
-329.01
-342.38
-348.88
-343.63
-323.53
-288.94
-244.26
-197.14
-156.42
-129.50
-120.31
-128.40
-149.25
-175.77
-200.15
-215.53
-217.69
-205.88
-182.81
-153.53
-123.63
-97.47
-77.03
-61.95
-50.13
-39.13
-27.02
-12.85
3.22
19.92
34.69
43.91
43.58
31.08
5.58
-31.87
-79.04
-133.34
-192.28
-253.33
-313.37
-368.43
-412.30
-439.24
-445.85
-432.50
-403.18
-363.81
-320.18
-276.44
-234.74
-192.39
-146.34
-95.38
-41.46
11.18
58.54
98.96
133.47
164.64
200.11
245.69
302.89
367.89
433.36
492.41
541.47
580.84
613.44
650.17
701.70
774.87
869.41
977.84
1088.39
1188.59
1268.45
1280.95
1195.83
1008.64
748.11
463.04
197.82
-23.76
-197.95
-331.67
-433.86
-504.73
-542.86
-549.49
-531.88
-501.78
-471.13
-447.97
-435.49
-433.49
-435.61
-435.93
-429.98
-417.80
-401.02
-380.69
-356.83
-329.92
-302.50
-276.13
-253.82
-237.48
-227.58
-223.07
-222.18
-223.36
-225.84
-229.48
-232.37
-232.19
-226.83
-215.89
-200.81
-184.33
-169.02
-156.52
-147.42
-139.63
-130.73
-118.78
-103.27
-84.89
-65.34
-46.53
-29.91
-16.19
-5.31
3.03
9.26
13.48
15.85
16.27
14.60
10.88
5.31
-1.81
-10.30
-20.10
-31.16
-42.90
-54.42
-64.60
-72.18
-76.08
-75.60
-70.42
-60.21
-47.06
-31.53
-13.58
7.20
31.30
59.14
90.83
125.98
163.18
199.66
231.79
255.32
266.92
265.53
252.91
232.94
210.13
188.02
168.39
151.87
138.33
127.45
118.55
110.15
99.94
85.69
66.59
44.18
22.41
6.09
-0.62
4.42
20.69
45.02
71.98
94.69
105.95
100.01
74.11
29.99
-25.83
-83.28
-131.61
-162.76
-173.96
-168.34
-153.11
-136.23
-123.10
-114.80
-108.67
-100.81
-88.87
-73.46
-57.52
-44.22
-34.85
-28.18
-21.53
-12.88
-2.37
7.68
14.14
15.00
10.57
3.30
-3.78
-8.89
-12.68
-17.72
-26.70
-40.35
-56.51
-70.92
-79.49
-80.43
-75.13
-67.05
-59.46
-53.35
-46.93
-37.03
-21.54
-1.22
20.15
37.72
48.32
52.12
52.06
51.44
51.32
49.63
42.69
28.13
7.11
-15.69
-34.76
-47.01
-53.45
-58.02
-64.37
-73.01
-80.75
-82.90
-76.55
-62.61
-45.10
-28.35
-14.46
-2.37
10.49
25.49
41.08
53.41
58.64
55.88
48.28
41.67
41.36
48.93
60.98
70.38
69.81
54.39
23.61
-18.73
-65.70
-109.38
-142.79
-160.94
-160.96
-140.97
-101.11
-44.02
24.61
96.29
160.64
207.36
228.58
221.32
190.37
145.83
100.72
67.69
55.79
68.37
103.04
153.47
212.02
273.56
333.29
385.88
425.06
444.83
441.25
415.11
372.82
312.76
241.29
168.17
102.77
50.55
12.24
-15.01
-34.18
-47.58
-57.25
-62.33
-64.67
-66.60
-69.98
-75.44
-83.31
-93.68
-107.34
-126.24
-151.97
-184.80
-225.24
-273.10
-321.07
-361.38
-387.58
-397.22
-392.41
-376.96
-355.62
-332.83
-311.97
-294.87
-282.00
-271.07
-257.25
-234.73
-198.70
-148.87
-90.41
-32.04
17.64
52.94
73.20
81.79
83.50
82.18
79.31
74.62
67.73
59.62
52.05
46.88
44.88
45.18
45.77
44.25
38.98
29.88
18.55
7.36
-1.40
-6.57
-8.54
-9.03
-10.40
-14.54
-22.16
-32.20
-42.55
-50.76
-54.64
-52.47
-43.33
-26.36
-2.16
26.28
53.67
73.64
81.27
75.66
60.49
43.54
32.88
32.94
42.82
57.64
71.44
80.31
83.75
83.85
83.48
84.17
85.65
86.50
85.54
82.55
78.01
72.65
66.20
57.73
46.64
34.14
23.00
17.34
20.40
32.24
49.07
64.45
71.89
68.09
53.88
33.12
10.64
-9.94
-26.98
-40.28
-50.12
-56.29
-58.50
-57.11
-53.59
-50.00
-48.22
-49.23
-52.54
-56.55
-59.43
-59.91
-58.14
-55.50
-53.92
-54.94
-58.89
-64.78
-70.76
-75.07
-76.91
-76.92
-76.77
-78.30
-82.67
-89.53
-97.30
-103.55
-105.61
-101.00
-88.20
-66.94
-39.16
-9.28
16.71
33.26
37.72
31.70
20.92
12.65
12.27
21.03
36.04
52.44
66.19
75.60
81.17
84.30
85.81
85.43
82.33
76.17
67.72
58.68
51.02
46.04
43.76
43.10
42.41
40.24
36.04
30.27
24.14
19.03
15.78
14.42
14.25
14.17
13.24
11.07
7.93
4.56
1.75
0.03
-0.59
-0.48
-0.30
-0.56
-1.52
-3.03
-4.67
-5.95
-6.58
-6.60
-6.30
-6.16
-6.55
-7.61
-9.11
-10.59
-11.58
-11.80
-11.37
-10.76
-10.59
-11.37
-13.19
-15.68
-18.13
-19.75
-20.09
-19.29
-18.04
-17.30
-17.90
-20.11
-23.48
-27.03
-29.79
-30.99
-30.52
-28.84
-26.74
-25.21
-25.42
-28.52
-35.09
-44.03
-51.95
-53.65
-44.07
-20.89
13.61
52.73
87.91
112.35
123.56
123.90
118.56
112.56
108.73
107.60
108.69
111.53
115.61
119.38
119.51
111.71
92.98
63.90
29.03
-4.31
-29.26
-42.20
-43.75
-37.75
-28.91
-20.71
-14.60
-10.39
-7.22
-4.38
-1.70
0.92
3.41
5.56
6.86
6.63
4.11
-1.06
-8.79
-18.70
-30.11
-42.47
-55.34
-67.91
-80.16
-92.30
-104.79
-117.88
-130.69
-140.51
-143.17
-135.09
-114.27
-82.99
-47.12
-14.06
10.18
23.31
27.00
25.26
22.00
19.46
17.61
15.60
12.93
10.09
8.21
8.12
9.61
11.58
12.71
11.80
8.81
4.56
0.36
-2.65
-3.96
-3.95
-3.59
-3.93
-5.74
-9.05
-13.28
-17.55
-21.13
-23.68
-25.43
-26.93
-28.82
-31.55
-35.13
-39.31
-43.66
-47.87
-51.72
-55.30
-58.70
-61.99
-65.10
-67.69
-69.24
-69.12
-66.90
-62.04
-54.27
-43.59
-30.24
-14.62
2.67
20.91
39.26
56.26
71.19
83.54
93.00
99.54
103.45
105.14
105.07
103.63
101.56
98.86
95.68
92.29
88.92
85.85
83.09
80.32
77.34
73.15
67.08
58.97
49.16
38.51
28.06
18.39
9.54
1.28
-6.62
-13.71
-18.44
-18.97
-14.49
-6.06
3.36
10.10
10.97
5.85
-4.10
-17.48
-33.49
-51.45
-69.33
-83.16
-88.17
-80.55
-60.15
-31.78
-3.39
17.27
25.28
21.35
9.65
-4.88
-18.90
-31.12
-41.79
-51.29
-59.25
-64.67
-66.76
-65.73
-62.68
-58.92
-55.22
-51.48
-46.55
-38.90
-27.45
-12.18
5.61
23.78
39.66
52.19
61.40
68.32
74.31
80.24
86.08
90.89
93.58
93.40
90.67
86.52
82.42
79.79
80.05
83.56
90.07
97.95
103.83
103.30
92.33
69.40
36.96
1.07
-30.90
-53.11
-63.62
-64.51
-60.04
-54.15
-48.84
-43.98
-38.55
-32.10
-25.24
-19.26
-15.17
-12.80
-10.97
-8.31
-3.76
2.51
9.20
14.64
17.28
16.17
11.54
4.52
-3.49
-11.19
-17.80
-23.22
-27.78
-31.49
-35.06
-38.63
-41.96
-44.81
-46.81
-47.67
-47.53
-46.76
-45.92
-45.77
-47.09
-49.76
-53.70
-58.15
-62.00
-64.49
-65.22
-64.45
-63.02
-62.20
-62.44
-64.10
-66.58
-68.77
-70.04
-70.08
-69.45
-69.37
-70.98
-74.48
-81.11
-91.97
-105.88
-120.56
-131.69
-133.58
-120.93
-91.12
-46.26
6.66
58.39
100.72
129.01
144.29
151.14
154.56
157.71
160.90
162.59
161.33
157.28
151.70
146.41
142.57
140.17
138.63
137.05
136.07
135.71
136.12
135.94
132.10
120.74
98.63
67.50
32.38
0.36
-22.41
-33.02
-32.83
-26.07
-17.55
-10.42
-5.76
-3.67
-4.01
-7.16
-13.63
-23.55
-35.96
-48.64
-59.92
-68.22
-73.23
-75.46
-75.94
-75.70
-75.32
-75.23
-74.10
-71.00
-65.32
-57.42
-48.25
-39.18
-31.78
-27.25
-26.02
-27.71
-31.60
-35.93
-40.43
-44.84
-49.07
-53.62
-58.99
-65.34
-72.20
-78.77
-83.80
-86.32
-86.54
-83.70
-78.26
-71.14
-63.02
-54.08
-43.98
-31.85
-16.75
0.65
19.23
37.06
51.99
61.97
65.32
60.92
48.79
30.66
10.44
-6.15
-13.97
-10.56
2.56
19.42
32.62
36.83
31.04
18.63
5.54
-3.17
-5.40
-2.29
3.53
10.16
17.39
26.65
39.70
57.27
78.44
100.74
122.04
140.83
155.78
165.03
166.17
156.93
136.61
107.39
74.27
42.59
16.65
-2.02
-14.97
-24.92
-34.02
-43.15
-51.89
-59.96
-67.96
-77.25
-89.22
-104.55
-122.58
-141.32
-157.71
-167.54
-166.63
-151.93
-123.03
-83.20
-39.05
1.79
33.30
52.96
61.96
63.57
60.78
54.53
45.21
32.43
16.68
-0.17
-15.61
-27.69
-35.87
-41.24
-45.50
-50.05
-55.36
-60.76
-64.95
-66.58
-64.94
-59.70
-51.22
-40.07
-26.65
-11.25
5.83
24.06
42.58
59.64
74.48
86.60
96.01
103.19
108.64
112.56
114.80
115.04
113.13
109.45
104.78
100.10
96.44
94.58
95.12
98.32
103.53
108.72
110.40
104.82
88.70
62.11
28.84
-4.67
-31.89
-48.77
-55.09
-53.73
-48.70
-43.04
-37.70
-32.19
-25.76
-18.66
-12.03
-7.23
-5.03
-5.07
-6.46
-8.21
-10.00
-12.35
-16.31
-22.87
-32.22
-43.58
-55.07
-64.48
-69.82
-69.95
-64.69
-54.80
-41.48
-25.52
-8.61
8.27
24.30
38.64
50.17
58.14
61.77
60.70
55.22
46.08
34.53
21.71
8.86
-3.68
-15.68
-26.93
-37.01
-45.17
-50.79
-53.49
-53.54
-52.00
-50.37
-49.98
-51.43
-54.41
-57.57
-59.37
-58.83
-55.96
-52.45
-50.06
-50.37
-53.68
-58.82
-63.62
-65.23
-62.39
-55.76
-48.13
-42.86
-42.65
-47.58
-57.34
-70.04
-83.09
-94.04
-98.37
-91.96
-72.33
-40.81
-3.29
31.21
54.58
63.12
59.54
51.36
46.56
49.43
58.50
68.22
72.64
69.31
60.41
51.45
48.43
54.29
68.15
85.58
100.29
106.88
102.97
89.47
70.79
51.53
34.37
19.47
5.25
-9.60
-24.77
-38.13
-47.18
-50.48
-48.90
-45.21
-42.66
-43.67
-48.66
-56.21
-63.90
-69.54
-72.12
-72.21
-71.57
-72.08
-74.75
-79.29
-84.22
-87.52
-87.44
-83.21
-74.95
-63.56
-50.09
-35.15
-18.78
-0.62
19.53
41.27
62.80
82.31
97.99
108.57
113.96
115.24
114.28
112.93
112.38
113.14
113.99
113.61
110.93
105.88
99.39
93.01
88.45
87.16
90.00
96.66
105.01
110.90
109.19
95.70
69.56
34.38
-2.61
-33.50
-52.93
-60.06
-58.35
-52.98
-48.06
-45.27
-44.41
-44.61
-45.21
-45.79
-45.00
-40.64
-30.55
-14.18
6.42
27.54
45.73
59.74
70.59
80.05
88.34
92.94
89.83
76.26
53.21
25.90
1.33
-15.54
-23.98
-27.56
-31.59
-40.21
-53.35
-68.67
-82.11
-90.56
-93.82
-94.08
-94.48
-97.24
-102.72
-109.35
-114.32
-115.90
-111.75
-102.06
-88.86
-75.02
-62.97
-53.69
-46.24
-38.33
-27.39
-12.04
6.83
26.21
41.92
50.37
49.44
39.07
20.61
-3.56
-30.02
-54.14
-69.98
-71.92
-56.99
-27.52
8.51
39.97
57.22
56.74
42.51
24.01
11.25
10.06
19.78
35.31
51.03
63.72
72.96
79.46
83.26
81.82
72.86
55.60
31.88
5.67
-18.73
-38.11
-51.50
-60.48
-69.13
-81.14
-98.68
-120.88
-143.41
-159.53
-162.52
-148.55
-116.19
-74.88
-36.72
-11.55
-2.83
-7.15
-16.72
-23.62
-22.88
-13.92
0.44
17.84
37.32
59.91
87.09
119.45
153.35
185.79
214.58
238.33
256.71
268.54
271.36
261.45
236.26
196.98
149.04
100.60
59.20
30.01
11.92
1.45
-5.92
-14.02
-24.45
-37.86
-54.05
-72.98
-94.43
-117.76
-141.43
-163.78
-183.33
-198.86
-211.61
-223.93
-238.32
-255.56
-273.39
-286.70
-289.72
-278.46
-244.95
-190.72
-123.21
-52.79
10.86
61.92
98.65
122.04
130.44
123.26
101.49
69.75
34.37
0.82
-26.58
-45.71
-56.70
-60.88
-58.60
-50.08
-34.48
-10.26
23.83
70.18
128.45
192.36
252.86
301.38
332.48
345.91
345.36
335.24
320.93
306.72
295.51
288.85
285.82
282.72
273.75
258.29
229.97
187.57
134.76
78.05
24.10
-23.96
-66.54
-106.39
-146.51
-189.40
-234.65
-281.08
-329.35
-375.37
-418.62
-459.57
-498.88
-536.82
-573.62
-607.10
-631.98
-641.99
-631.73
-599.85
-548.81
-484.46
-414.21
-345.10
-280.95
-219.54
-157.37
-92.73
-27.81
33.50
87.84
133.71
171.26
201.83
231.09
262.36
294.93
324.33
346.38
359.85
366.88
371.63
378.60
397.01
431.99
481.97
539.16
594.12
639.22
670.09
685.13
651.51
555.42
407.71
239.26
80.43
-52.31
-155.92
-233.64
-287.48
-324.34
-342.01
-338.32
-314.56
-276.32
-229.81
-179.11
-127.12
-79.21
-40.91
-11.62
10.38
26.79
37.44
41.30
37.22
25.77
8.52
-12.22
-30.68
-42.62
-46.41
-44.09
-35.40
-26.12
-19.88
-18.00
-19.76
-21.45
-19.67
-11.80
2.07
20.13
39.59
59.04
78.48
99.77
127.22
159.44
197.64
242.72
294.96
352.86
413.23
469.98
514.81
539.43
538.41
512.39
467.06
411.28
353.64
300.36
253.94
214.04
179.35
149.03
123.70
103.83
88.89
77.09
66.32
55.02
42.80
30.39
19.25
10.98
6.13
4.05
3.21
2.06
-0.44
-4.42
-9.20
-13.77
-17.09
-18.84
-19.44
-19.86
-21.13
-23.92
-28.36
-34.06
-40.38
-46.66
-52.55
-58.05
-63.38
-68.80
-74.37
-79.96
-85.18
-89.61
-92.89
-94.85
-95.52
-95.04
-93.63
-91.52
-88.90
-85.94
-82.84
-79.74
-76.77
-73.93
-71.13
-68.20
-64.95
-61.26
-57.07
-52.44
-47.44
-42.19
-36.77
-31.27
-25.78
-20.43
-15.46
-11.16
-7.88
-5.87
-5.26
-5.93
-7.56
-9.72
-12.02
-14.32
-16.75
-19.66
-23.35
-27.81
-32.58
-36.80
-39.53
-40.14
-38.68
-35.99
-33.45
-32.43
-33.76
-37.32
-42.14
-46.94
-50.83
-53.91
-57.41
-63.21
-73.02
-87.54
-106.02
-126.52
-147.02
-166.17
-184.07
-201.97
-221.44
-243.63
-268.94
-297.59
-329.69
-364.58
-399.36
-427.50
-439.63
-426.98
-386.15
-321.88
-246.19
-173.37
-114.10
-71.94
-44.10
-25.17
-11.08
-0.65
5.76
8.62
10.33
14.07
21.32
30.18
35.98
33.52
19.49
-6.28
-41.31
-81.54
-122.47
-160.10
-191.80
-217.20
-238.12
-257.32
-276.33
-293.82
-305.93
-308.89
-302.46
-291.44
-284.46
-290.63
-313.92
-350.45
-390.16
-421.48
-436.18
-431.72
-410.25
-375.97
-333.38
-284.94
-231.38
-173.24
-112.31
-51.67
5.55
57.84
105.92
150.51
194.23
241.46
296.91
362.87
437.63
515.19
586.67
642.57
669.89
662.43
624.23
567.48
505.33
446.61
394.47
348.11
305.33
252.54
182.07
97.08
8.99
-72.32
-143.23
-204.97
-260.00
-309.76
-373.38
-462.17
-571.75
-684.78
-785.60
-867.42
-931.12
-980.29
-1018.42
-1073.05
-1161.91
-1282.02
-1412.47
-1533.64
-1636.71
-1722.67
-1796.11
-1704.84
-1381.07
-876.65
-328.91
145.87
501.49
744.59
901.32
1000.10
1064.07
1084.61
1056.04
981.20
887.21
796.65
719.40
654.94
601.54
560.23
515.53
459.31
396.37
341.08
301.94
284.61
282.84
289.58
301.14
305.18
295.19
274.21
253.42
241.83
242.12
249.57
256.36
254.16
231.38
184.12
119.62
53.90
2.19
-27.20
-35.30
-28.48
-14.53
-1.36
7.26
11.67
14.34
16.50
17.74
16.85
14.25
12.13
13.23
19.59
31.46
47.27
64.32
80.19
93.55
104.94
116.31
129.90
147.13
167.99
190.99
214.02
235.29
254.16
271.47
289.10
308.95
332.05
358.08
385.70
413.28
439.79
465.12
489.96
515.03
540.40
565.02
586.79
603.15
611.62
610.20
597.61
573.45
538.73
495.94
448.89
401.62
357.11
316.17
277.45
238.61
197.79
155.03
112.01
71.06
33.48
-1.35
-36.01
-74.12
-118.72
-170.50
-226.76
-281.50
-326.64
-354.62
-360.42
-343.06
-305.81
-254.74
-196.96
-139.12
-86.98
-45.39
-18.35
-8.27
-14.65
-34.08
-60.28
-85.71
-103.77
-110.77
-106.22
-92.74
-74.13
-54.23
-37.66
-28.95
-31.77
-48.51
-79.88
-124.85
-181.75
-247.72
-319.16
-393.63
-468.08
-537.44
-594.35
-630.72
-640.03
-621.07
-576.67
-512.26
-436.15
-355.63
-274.47
-192.70
-108.90
-17.85
72.96
146.07
192.56
207.01
189.96
150.32
103.83
66.86
50.26
53.77
69.37
86.34
95.14
92.84
84.37
79.74
84.35
98.57
119.29
138.36
146.53
138.74
115.92
79.52
36.49
-3.15
-27.43
-34.34
-25.39
-2.59
30.31
66.74
97.73
114.51
110.31
83.43
37.20
-19.82
-76.65
-123.62
-154.88
-169.30
-170.34
-166.71
-167.58
-178.06
-196.72
-218.27
-238.45
-254.58
-265.05
-268.84
-265.29
-253.37
-233.66
-207.92
-179.01
-149.73
-122.34
-97.91
-76.46
-57.38
-39.73
-22.98
-7.27
6.52
17.45
24.99
29.14
30.48
29.90
28.50
27.20
26.53
26.46
27.32
29.33
32.40
36.00
39.40
42.18
44.15
45.26
45.32
45.96
48.28
52.03
55.40
56.13
52.98
46.36
37.96
29.89
27.97
36.36
55.44
81.43
108.68
132.95
152.89
169.64
185.48
208.91
245.97
296.99
356.10
414.66
466.28
508.84
543.74
574.06
611.62
666.35
741.91
833.63
930.96
1022.12
1096.86
1147.70
1119.28
981.42
742.52
451.12
167.34
-69.13
-247.11
-374.17
-463.57
-526.51
-561.87
-567.53
-546.24
-507.89
-465.89
-430.27
-404.87
-388.37
-377.03
-361.12
-334.06
-295.70
-252.79
-215.92
-193.11
-187.34
-196.86
-217.48
-240.39
-258.40
-268.37
-271.51
-272.88
-277.30
-288.12
-306.77
-332.58
-360.78
-385.27
-400.99
-397.12
-370.74
-324.28
-263.99
-196.61
-126.74
-55.32
17.60
90.12
156.90
208.53
236.34
235.78
208.43
160.41
98.65
28.10
-48.29
-124.68
-189.49
-228.92
-235.93
-214.67
-177.62
-139.04
-109.04
-90.91
-81.72
-77.73
-75.13
-73.47
-74.02
-77.67
-83.90
-90.77
-95.72
-96.51
-92.44
-85.05
-77.14
-71.07
-67.62
-65.97
-64.12
-59.58
-50.24
-35.35
-15.98
5.33
25.78
43.63
58.63
72.03
85.92
102.19
121.79
144.45
169.42
196.18
224.39
252.76
277.56
292.59
290.39
265.09
214.84
142.73
55.34
-40.26
-138.76
-237.28
-333.41
-422.87
-498.26
-550.88
-574.35
-568.02
-537.70
-492.99
-443.48
-395.40
-350.60
-307.69
-264.73
-221.28
-178.78
-139.64
-104.71
-73.36
-43.99
-15.33
12.83
39.54
63.10
82.01
95.61
106.79
119.01
134.67
153.70
173.91
192.36
206.75
216.14
220.99
227.56
241.70
265.99
298.07
332.16
362.41
385.32
400.44
409.54
423.13
450.24
494.21
550.49
609.55
662.37
704.04
734.16
755.42
781.57
824.64
890.22
975.03
1069.75
1164.00
1249.08
1318.36
1305.79
1170.59
912.82
581.52
247.99
-32.83
-240.13
-380.98
-475.13
-542.87
-589.51
-616.26
-626.26
-627.90
-631.47
-642.77
-660.38
-678.03
-689.56
-684.60
-657.85
-611.02
-552.62
-494.02
-444.84
-410.49
-392.29
-388.20
-388.58
-382.60
-362.19
-325.23
-276.02
-222.95
-176.27
-144.10
-129.85
-129.21
-134.15
-136.96
-133.06
-122.69
-108.17
-91.68
-74.13
-55.49
-34.88
-12.06
11.99
35.55
57.42
77.12
95.23
112.84
130.07
145.15
155.09
156.69
148.42
131.95
110.78
89.68
73.15
63.59
58.79
55.37
48.93
35.76
14.80
-13.46
-46.22
-76.98
-96.84
-98.65
-80.83
-48.90
-16.49
10.14
28.69
40.38
49.45
63.06
87.15
125.21
176.38
235.63
295.62
347.53
384.24
402.20
401.27
383.30
351.37
309.22
261.42
213.53
170.30
135.12
109.41
92.08
79.63
67.27
50.62
27.06
-3.25
-38.48
-75.68
-111.93
-145.45
-176.33
-205.94
-235.98
-267.50
-300.23
-333.34
-365.74
-396.10
-422.46
-441.98
-451.07
-446.68
-428.02
-397.60
-360.87
-324.03
-291.44
-264.01
-239.70
-215.62
-190.35
-165.13
-142.99
-126.65
-116.57
-110.43
-104.28
-94.65
-80.28
-62.46
-44.14
-28.27
-16.16
-7.07
1.05
10.00
20.04
29.76
36.97
40.27
40.04
38.58
38.99
43.70
53.07
65.28
77.16
85.63
88.90
86.55
79.84
71.03
62.75
57.09
55.18
57.00
61.84
68.48
74.51
77.70
76.50
70.67
61.08
49.76
39.73
34.18
34.92
38.66
39.38
31.01
10.90
-18.61
-51.12
-78.89
-96.11
-101.26
-100.74
-102.71
-112.53
-129.93
-150.38
-168.91
-182.74
-191.81
-197.47
-205.47
-220.07
-242.42
-270.54
-301.78
-335.18
-371.19
-410.08
-421.74
-384.03
-292.65
-166.22
-33.19
85.01
179.37
250.45
303.37
343.85
371.73
384.98
383.54
369.73
347.87
321.82
293.52
262.98
229.66
192.24
153.91
121.77
103.75
104.49
122.37
150.57
180.87
207.29
225.16
231.86
225.59
204.86
169.32
121.10
66.23
14.17
-24.93
-44.84
-44.83
-29.09
-4.56
22.16
46.92
68.23
86.43
101.99
113.99
119.71
117.31
104.07
78.20
39.23
-12.62
-76.68
-151.10
-231.30
-309.20
-374.04
-415.76
-428.56
-413.25
-376.71
-328.19
-274.69
-218.37
-157.08
-87.41
-8.12
78.81
169.17
258.23
342.01
416.86
478.17
520.16
537.42
527.50
492.79
440.64
380.86
322.49
271.60
230.24
197.55
171.45
149.94
131.68
115.86
101.70
88.08
73.80
57.71
39.23
18.51
-3.64
-26.05
-47.62
-67.89
-87.21
-106.53
-127.11
-149.70
-174.23
-199.75
-224.85
-248.18
-269.11
-288.04
-305.94
-324.06
-343.73
-366.41
-393.54
-425.82
-461.91
-497.75
-526.89
-542.42
-539.80
-519.12
-485.37
-446.61
-410.69
-382.41
-362.54
-348.85
-338.12
-327.92
-317.01
-304.81
-290.55
-272.91
-250.50
-222.72
-190.30
-155.18
-120.07
-87.37
-58.42
-33.51
-12.27
5.71
20.25
30.55
35.49
34.27
26.99
15.02
0.72
-13.29
-24.79
-32.48
-36.00
-35.57
-31.46
-23.65
-11.71
4.84
26.05
51.10
78.48
106.28
132.96
157.72
180.66
202.59
224.56
247.52
271.99
297.89
324.24
348.91
368.73
380.36
381.78
373.65
359.69
345.09
333.76
325.72
316.38
298.38
265.24
214.76
150.37
79.82
12.35
-44.18
-84.71
-106.87
-110.37
-96.58
-68.56
-31.23
9.08
45.86
74.26
92.53
102.31
107.41
111.84
118.00
125.83
133.36
138.41
140.08
139.39
138.55
139.49
142.46
145.89
147.52
146.05
141.95
137.26
134.13
133.41
134.18
134.61
133.47
131.20
129.99
132.61
141.09
155.92
176.44
201.71
231.09
264.00
298.94
332.72
360.48
377.05
379.03
366.37
342.47
312.68
282.30
254.72
231.10
210.92
193.07
176.51
160.44
144.47
128.62
113.82
101.89
95.14
95.12
101.39
111.05
119.51
122.14
115.97
100.63
77.94
50.82
22.20
-5.91
-32.58
-57.81
-82.29
-107.09
-133.25
-161.42
-191.41
-221.99
-251.50
-278.40
-301.90
-322.03
-339.19
-353.71
-365.86
-376.41
-386.71
-398.38
-412.31
-427.46
-440.46
-446.46
-440.92
-421.78
-390.55
-351.37
-309.10
-267.43
-228.23
-192.10
-159.55
-131.77
-110.35
-96.80
-90.44
-87.77
-83.52
-72.73
-53.06
-26.17
1.97
22.53
25.71
6.16
-33.72
-84.02
-131.27
-163.47
-174.09
-163.51
-137.28
-104.44
-71.62
-40.92
-12.22
12.79
28.92
29.70
10.89
-26.79
-79.76
-140.40
-198.84
-245.89
-275.09
-282.89
-267.86
-230.93
-163.06
-71.42
21.03
88.59
120.11
123.43
115.15
108.43
106.88
106.10
97.98
79.70
56.35
37.36
30.98
40.08
61.67
89.49
117.28
140.56
155.09
160.66
159.30
153.38
144.52
133.76
122.36
111.87
104.50
101.31
102.17
105.70
110.24
114.23
116.83
118.35
119.95
125.53
136.98
153.19
169.89
181.37
182.45
169.93
143.70
96.20
32.66
-33.27
-87.16
-122.88
-143.35
-154.95
-162.17
-165.32
-161.36
-142.70
-105.94
-54.18
4.30
60.04
106.43
141.56
168.25
174.17
157.72
122.77
76.08
24.14
-28.06
-76.45
-117.94
-150.92
-175.83
-191.51
-198.89
-201.13
-201.77
-203.31
-205.50
-206.65
-205.20
-200.75
-191.99
-179.07
-163.95
-149.16
-136.35
-125.43
-115.03
-103.20
-87.91
-69.70
-49.03
-27.18
-5.62
14.71
33.90
52.64
71.78
91.82
113.53
137.71
164.37
192.55
220.15
244.03
260.64
267.06
262.07
246.89
224.91
200.10
175.84
154.33
136.51
122.55
112.14
104.74
99.38
95.03
90.67
85.75
80.63
76.45
74.51
75.49
78.96
83.54
87.70
90.45
91.65
91.86
91.92
92.69
95.03
99.93
108.30
120.51
135.90
152.83
169.66
186.22
204.73
229.28
263.50
307.83
357.76
404.52
438.07
451.03
441.47
413.16
373.27
329.21
286.07
245.87
208.58
173.69
141.21
111.66
85.12
60.48
35.37
7.17
-25.78
-63.31
-103.40
-143.10
-179.77
-212.12
-240.59
-267.02
-293.91
-323.54
-356.87
-392.79
-427.82
-456.84
-474.53
-477.33
-464.78
-439.78
-407.46
-373.14
-340.51
-310.98
-284.06
-258.68
-234.28
-211.26
-190.56
-172.84
-157.97
-145.09
-133.05
-120.91
-108.20
-94.94
-81.34
-67.58
-53.68
-39.54
-25.17
-10.91
2.68
14.93
25.49
34.47
42.45
50.05
57.58
64.72
70.75
75.06
77.64
79.40
82.08
87.52
96.84
109.44
122.67
132.24
133.42
122.73
99.15
64.78
24.00
-17.95
-56.88
-90.94
-121.08
-150.36
-182.57
-220.22
-262.75
-305.83
-342.05
-362.88
-361.25
-334.10
-283.60
-217.18
-146.28
-84.16
-43.03
-30.86
-49.04
-91.85
-148.04
-204.04
-247.63
-270.35
-268.37
-241.81
-193.79
-129.91
-58.24
11.58
70.16
111.14
133.40
140.97
140.68
138.91
138.94
140.56
141.71
140.74
137.73
134.35
132.66
133.42
135.67
137.26
136.34
132.59
127.47
123.66
123.96
130.29
143.17
161.45
182.18
200.80
211.76
209.67
190.69
154.07
102.80
43.33
-15.94
-66.77
-103.16
-122.66
-126.60
-119.12
-105.69
-91.45
-79.97
-72.92
-70.24
-70.85
-73.35
-76.42
-78.81
-79.42
-77.40
-72.38
-64.75
-55.52
-45.90
-36.85
-28.56
-20.50
-11.88
-2.25
8.10
18.08
26.40
32.01
34.57
34.33
31.87
27.82
22.75
17.48
13.20
11.44
13.49
19.86
29.83
41.50
52.37
60.25
64.17
64.56
63.13
61.99
62.92
66.74
73.10
80.75
87.87
92.58
93.25
88.68
78.30
62.30
41.60
17.73
-7.32
-31.55
-53.17
-70.80
-83.68
-91.73
-95.65
-96.67
-96.32
-95.94
-96.27
-97.37
-98.66
-99.28
-98.39
-95.45
-90.27
-83.03
-74.20
-64.44
-54.44
-44.82
-36.04
-28.40
-22.01
-16.87
-12.92
-10.03
-8.10
-6.96
-6.42
-6.17
-5.81
-4.92
-3.14
-0.37
3.24
7.28
11.30
14.89
17.83
20.11
21.82
23.09
24.02
24.60
24.81
24.61
23.99
23.02
21.81
20.53
19.28
18.11
16.97
15.74
14.31
12.65
10.79
8.84
6.94
5.18
3.61
2.13
0.63
-1.04
-2.99
-5.27
-7.89
-10.75
-13.67
-16.26
-17.96
-18.18
-16.48
-12.78
-7.47
-1.32
4.82
10.29
14.85
18.62
21.84
24.71
27.22
29.29
30.81
31.70
31.95
31.64
30.85
29.69
28.38
27.08
26.00
25.21
24.75
24.56
24.62
24.94
25.55
26.37
27.21
27.80
27.87
27.23
25.82
23.68
21.03
18.09
15.17
12.55
10.33
8.48
6.79
5.02
2.98
0.69
-1.67
-3.82
-5.62
-7.13
-8.62
-10.42
-12.76
-15.76
-19.31
-23.11
-26.70
-29.47
-30.76
-30.10
-27.30
-22.64
-16.79
-10.62
-4.91
-0.08
3.81
7.00
9.80
12.36
14.65
16.59
18.17
19.49
20.74
22.06
23.45
24.77
25.78
26.37
26.56
26.55
26.59
26.82
27.23
27.63
27.76
27.38
26.41
24.95
23.28
21.69
20.37
19.38
18.61
17.87
16.99
15.88
14.47
12.75
10.77
8.66
6.64
4.98
3.82
3.19
2.88
2.61
2.15
1.48
0.70
-0.01
-0.61
-1.24
-2.11
-3.47
-5.44
-7.97
-10.83
-13.66
-15.97
-17.31
-17.31
-15.86
-13.22
-9.84
-6.28
-2.96
-0.04
2.48
4.70
6.69
8.38
9.68
10.49
10.80
10.70
10.33
9.83
9.37
9.06
9.04
9.34
9.98
10.86
11.79
12.57
13.07
13.25
13.22
13.11
13.02
12.99
12.95
12.75
12.29
11.46
10.32
9.02
7.72
6.52
5.48
4.56
3.67
2.74
1.72
0.60
-0.59
-1.80
-2.97
-4.04
-4.98
-5.82
-6.67
-7.64
-8.78
-9.95
-10.85
-11.13
-10.51
-9.00
-6.84
-4.42
-2.04
0.13
2.14
4.06
5.90
7.54
8.76
9.44
9.54
9.22
8.69
8.18
7.87
7.84
8.05
8.35
8.55
8.46
8.02
7.29
6.48
5.82
5.46
5.43
5.65
5.94
6.16
6.27
6.23
6.05
5.77
5.44
5.14
4.92
4.76
4.54
4.12
3.33
2.12
0.58
-1.09
-2.70
-4.08
-5.26
-6.37
-7.54
-8.86
-10.31
-11.73
-12.92
-13.68
-13.90
-13.47
-12.35
-10.50
-7.99
-4.98
-1.71
1.45
4.28
6.60
8.32
9.44
9.99
10.00
9.60
8.94
8.22
7.72
7.53
7.63
7.89
8.06
7.99
7.69
7.30
7.06
7.19
7.72
8.55
9.46
10.22
10.68
10.81
10.65
10.28
9.81
9.34
8.93
8.60
8.26
7.76
6.95
5.75
4.21
2.54
0.94
-0.36
-1.32
-1.98
-2.50
-2.97
-3.44
-3.87
-4.20
-4.40
-4.48
-4.42
-4.29
-4.15
-4.18
-4.58
-5.54
-7.07
-8.95
-10.70
-11.73
-11.59
-10.15
-7.66
-4.59
-1.49
1.26
3.43
4.99
5.91
6.23
5.95
5.22
4.26
3.41
2.95
2.94
3.25
3.62
3.82
3.79
3.71
3.75
4.06
4.61
5.22
5.71
5.99
6.10
6.14
6.17
6.14
5.96
5.52
4.80
3.88
2.87
1.89
1.09
0.58
0.40
0.50
0.70
0.75
0.48
-0.13
-0.88
-1.46
-1.61
-1.25
-0.58
0.06
0.27
-0.17
-1.29
-2.84
-4.49
-5.94
-6.98
-7.60
-7.92
-8.09
-8.30
-8.67
-9.26
-9.99
-10.73
-11.21
-11.17
-10.34
-8.59
-5.91
-2.60
0.90
4.04
6.35
7.58
7.77
7.27
6.51
5.86
5.50
5.34
5.15
4.76
4.13
3.38
2.68
2.14
1.82
1.71
1.80
2.10
2.62
3.28
3.90
4.24
4.16
3.66
2.94
2.24
1.81
1.71
1.93
2.33
2.76
3.06
3.10
2.82
2.18
1.33
0.42
-0.33
-0.80
-0.96
-0.94
-0.91
-0.98
-1.26
-1.74
-2.39
-3.14
-3.84
-4.38
-4.64
-4.69
-4.69
-4.88
-5.45
-6.38
-7.54
-8.70
-9.67
-10.38
-10.80
-10.83
-10.31
-9.05
-7.01
-4.36
-1.51
0.98
2.75
3.65
3.87
3.76
3.60
3.51
3.47
3.42
3.41
3.54
3.85
4.26
4.59
4.67
4.48
4.20
4.05
4.17
4.46
4.71
4.67
4.28
3.67
3.06
2.59
2.27
2.00
1.66
1.22
0.78
0.46
0.34
0.38
0.50
0.56
0.50
0.27
-0.11
-0.58
-1.07
-1.52
-1.84
-1.99
-2.01
-1.96
-1.91
-1.93
-2.06
-2.28
-2.53
-2.76
-2.89
-2.89
-2.74
-2.49
-2.29
-2.32
-2.80
-3.76
-5.14
-6.66
-7.96
-8.68
-8.60
-7.70
-6.12
-4.15
-2.07
-0.16
1.38
2.40
2.85
2.79
2.37
1.89
1.63
1.71
2.07
2.52
2.76
2.67
2.34
2.04
2.02
2.41
3.06
3.72
4.11
4.15
3.92
3.64
3.39
3.16
2.84
2.33
1.66
0.97
0.45
0.22
0.27
0.48
0.65
0.60
0.29
-0.19
-0.66
-0.97
-1.05
-0.96
-0.88
-1.05
-1.61
-2.56
-3.75
-4.93
-5.94
-6.74
-7.42
-8.06
-8.75
-9.40
-9.88
-10.13
-10.17
-10.11
-10.09
-10.14
-10.24
-10.29
-10.19
-9.88
-9.33
-8.39
-6.98
-5.05
-2.72
-0.30
1.84
3.44
4.42
4.86
4.95
4.76
4.25
3.39
2.21
0.92
-0.10
-0.57
-0.36
0.43
1.48
2.50
3.33
3.98
4.59
5.26
5.97
6.58
6.90
6.84
6.44
5.90
5.38
4.95
4.50
3.89
3.09
2.28
1.72
1.62
1.91
2.24
2.20
1.52
0.31
-1.02
-2.02
-2.50
-2.55
-2.46
-2.53
-2.88
-3.44
-4.11
-4.88
-5.79
-6.87
-8.03
-9.07
-9.78
-10.17
-10.38
-10.71
-11.41
-12.57
-14.05
-15.57
-16.78
-17.36
-17.07
-15.77
-13.50
-10.48
-7.08
-3.71
-0.71
1.76
3.61
4.86
5.55
5.69
5.38
4.78
4.09
3.52
3.19
3.10
3.20
3.38
3.59
3.82
4.15
4.61
5.26
6.04
6.76
7.21
7.20
6.69
5.86
4.99
4.32
3.92
3.65
3.31
2.73
1.96
1.18
0.65
0.49
0.59
0.68
0.53
0.02
-0.69
-1.34
-1.72
-1.75
-1.57
-1.46
-1.69
-2.44
-3.69
-5.23
-6.83
-8.33
-9.69
-10.97
-12.23
-13.52
-14.81
-16.11
-17.38
-18.54
-19.39
-19.68
-19.15
-17.67
-15.28
-12.22
-8.82
-5.36
-2.06
0.92
3.46
5.42
6.72
7.39
7.57
7.54
7.52
7.69
8.13
8.76
9.47
10.11
10.53
10.63
10.42
9.96
9.44
9.08
9.06
9.42
10.03
10.66
11.04
11.03
10.57
9.75
8.67
7.45
6.23
5.14
4.37
4.03
4.12
4.47
4.80
4.84
4.48
3.84
3.15
2.59
2.20
1.87
1.42
0.76
-0.10
-1.06
-1.98
-2.76
-3.32
-3.63
-3.68
-3.59
-3.60
-3.96
-4.83
-6.09
-7.26
-7.64
-6.54
-3.61
1.03
6.82
13.00
18.95
24.31
29.08
33.52
37.92
42.52
47.37
52.37
57.32
62.04
66.48
70.76
75.13
79.99
85.57
92.03
99.21
106.63
113.65
119.56
123.78
126.10
126.82
126.67
126.69
127.71
129.92
132.56
133.95
131.98
124.83
111.60
92.60
69.22
43.51
17.56
-6.85
-28.44
-46.43
-60.44
-70.44
-76.81
-80.23
-81.63
-81.98
-82.28
-83.62
-87.14
-93.85
-104.16
-117.31
-131.03
-141.97
-146.39
-141.33
-125.55
-99.77
-66.21
-27.78
12.50
51.77
87.23
116.07
135.79
144.64
142.24
129.79
109.93
85.91
60.81
36.72
14.66
-5.14
-22.58
-37.20
-48.17
-54.79
-57.13
-56.44
-54.87
-54.66
-57.16
-62.16
-67.92
-72.02
-72.35
-67.81
-58.44
-45.24
-29.76
-13.69
1.41
14.32
24.76
33.51
42.64
55.12
74.17
102.42
140.93
188.52
241.33
293.22
337.04
366.56
378.35
372.88
354.28
328.54
301.28
275.94
253.29
232.19
211.02
188.80
165.49
141.47
116.94
91.48
64.40
35.23
4.00
-28.70
-62.12
-95.66
-128.75
-160.57
-189.52
-213.20
-228.92
-234.74
-230.39
-217.72
-200.15
-181.74
-165.96
-154.97
-149.63
-149.86
-154.89
-163.12
-171.81
-177.14
-175.09
-163.24
-142.21
-116.30
-92.13
-76.09
-71.63
-77.96
-90.61
-103.82
-113.06
-116.42
-114.50
-108.99
-101.59
-93.59
-86.39
-81.71
-81.11
-84.67
-90.14
-93.35
-90.00
-78.13
-59.52
-39.03
-22.35
-13.18
-11.70
-15.01
-19.06
-20.90
-19.71
-16.51
-12.91
-10.04
-8.20
-7.12
-6.69
-7.20
-9.25
-13.25
-18.95
-25.25
-30.52
-33.21
-32.39
-28.12
-21.38
-13.59
-6.05
0.55
6.31
11.93
18.15
25.42
33.44
41.36
47.99
52.31
53.71
52.09
47.75
41.21
32.96
23.08
11.07
-4.05
-23.48
-47.92
-76.83
-108.20
-138.92
-165.50
-185.18
-196.65
-200.18
-197.30
-190.23
-181.35
-172.94
-167.09
-165.21
-167.64
-173.54
-181.07
-188.09
-192.94
-195.05
-195.10
-195.11
-197.44
-204.04
-215.81
-232.33
-251.79
-271.36
-287.98
-299.28
-304.96
-305.78
-302.97
-297.49
-289.75
-279.33
-265.24
-246.41
-222.20
-194.63
-166.34
-140.07
-118.04
-101.50
-90.28
-82.65
-75.91
-67.54
-59.22
-53.52
-52.90
-58.50
-69.51
-83.60
-97.52
-108.29
-113.82
-116.44
-117.03
-113.76
-102.65
-80.45
-47.68
-9.99
23.34
64.07
114.42
171.58
229.91
284.98
334.74
377.31
409.77
429.55
436.64
430.96
415.66
395.37
373.70
351.93
329.35
304.89
278.39
250.82
221.71
192.52
166.92
149.89
145.16
153.38
171.03
192.02
209.57
217.21
212.71
197.75
176.47
152.31
126.66
99.34
70.69
42.43
17.37
-0.61
-8.95
-7.35
1.57
13.54
24.63
33.68
42.03
53.54
74.26
105.48
147.97
199.57
254.79
304.95
340.07
350.07
328.87
277.88
205.84
127.40
58.26
10.61
-13.57
-14.85
-1.10
15.91
26.83
26.69
14.25
-10.40
-45.90
-89.03
-134.04
-175.04
-209.06
-232.86
-244.50
-243.39
-230.30
-206.79
-175.88
-141.50
-108.47
-80.52
-58.55
-41.72
-28.30
-18.40
-13.37
-14.68
-22.44
-35.14
-49.30
-60.35
-64.96
-62.31
-54.05
-43.02
-32.10
-23.08
-16.61
-12.24
-8.76
-5.24
-1.41
2.41
5.71
8.04
9.28
9.55
9.12
8.31
7.23
5.72
3.62
0.96
-2.01
-4.95
-7.58
-9.81
-11.71
-13.34
-14.69
-15.49
-15.37
-13.90
-10.89
-6.50
-1.12
4.60
9.99
14.49
17.77
19.77
20.72
21.01
20.99
20.83
20.51
19.83
18.63
16.99
15.23
13.87
13.33
13.79
15.01
16.53
17.89
18.79
19.19
19.27
19.22
19.15
19.01
18.70
18.15
17.45
16.71
16.04
15.43
14.76
13.91
12.77
11.35
9.79
8.29
7.00
5.99
5.15
4.30
3.18
1.61
-0.43
-2.83
-5.30
-7.56
-9.41
-10.83
-11.94
-13.02
-14.34
-16.13
-18.50
-21.45
-24.87
-28.45
-31.75
-34.20
-35.23
-34.43
-31.68
-27.19
-21.49
-15.26
-9.10
-3.48
1.31
5.18
8.09
10.06
11.19
11.62
11.60
11.35
11.11
10.99
11.08
11.36
11.77
12.16
12.48
12.74
13.04
13.55
14.36
15.49
16.80
18.02
18.87
19.14
18.71
17.62
15.92
13.74
11.25
8.60
5.97
3.52
1.35
-0.52
-2.13
-3.58
-5.00
-6.55
-8.25
-10.06
-11.75
-13.17
-14.27
-15.23
-16.40
-18.16
-20.64
-23.60
-26.52
-28.65
-29.36
-28.34
-25.59
-21.42
-16.28
-10.61
-4.81
0.76
5.79
10.03
13.29
15.50
16.77
17.36
17.60
17.72
17.76
17.68
17.31
16.69
16.02
15.61
15.75
16.45
17.43
18.31
18.77
18.71
18.25
17.65
17.08
16.59
16.06
15.39
14.47
13.31
11.94
10.43
8.90
7.48
6.28
5.43
4.88
4.47
3.97
3.16
1.96
0.42
-1.39
-3.42
-5.78
-8.58
-11.93
-15.81
-20.06
-24.33
-28.26
-31.45
-33.50
-34.03
-32.72
-29.55
-24.80
-19.06
-13.13
-7.69
-3.10
0.63
3.81
6.76
9.65
12.39
14.76
16.55
17.69
18.36
18.86
19.48
20.31
21.21
21.85
22.04
21.75
21.25
20.94
21.09
21.75
22.63
23.37
23.67
23.44
22.75
21.75
20.51
19.02
17.23
15.14
12.89
10.71
8.84
7.44
6.48
5.83
5.20
4.33
3.08
1.40
-0.50
-2.36
-4.01
-5.41
-6.62
-7.85
-9.21
-10.72
-12.38
-14.12
-16.01
-18.15
-20.52
-22.95
-25.04
-26.25
-26.07
-24.20
-20.68
-15.87
-10.36
-4.72
0.54
5.08
8.71
11.47
13.43
14.77
15.69
16.36
17.00
17.74
18.66
19.75
20.89
21.88
22.49
22.62
22.24
21.55
20.77
20.13
19.67
19.32
18.84
18.09
17.07
15.97
15.01
14.34
13.92
13.57
13.06
12.28
11.31
10.33
9.48
8.85
8.34
7.80
7.09
6.16
5.00
3.71
2.35
0.97
-0.35
-1.52
-2.49
-3.25
-3.88
-4.46
-5.10
-5.85
-6.75
-7.76
-8.84
-10.01
-11.30
-12.85
-14.67
-16.72
-18.86
-20.78
-22.14
-22.62
-22.03
-20.38
-17.79
-14.43
-10.44
-5.93
-1.07
3.84
8.32
11.84
14.03
14.83
14.55
13.76
13.06
12.93
13.72
15.61
18.54
22.24
26.15
29.67
32.36
34.17
35.54
37.12
39.37
42.04
43.86
42.87
37.23
26.34
11.53
-3.95
-16.14
-21.82
-20.03
-12.50
-2.94
4.58
7.48
5.61
1.06
-3.17
-4.74
-2.99
0.92
4.72
6.27
4.59
0.27
-4.69
-7.88
-7.59
-3.53
2.97
9.38
12.67
10.03
-0.55
-19.45
-44.70
-71.45
-92.35
-99.53
-87.56
-56.39
-12.38
33.45
69.48
87.89
87.23
72.03
49.78
27.40
8.88
-4.69
-13.67
-18.27
-17.96
-12.21
-1.51
12.00
25.12
35.12
40.90
43.35
44.73
47.33
52.25
59.05
66.02
71.12
73.04
71.77
68.52
65.24
63.58
64.12
65.93
66.86
64.45
57.15
45.17
30.48
16.02
4.42
-3.19
-7.38
-9.86
-12.42
-15.97
-20.41
-25.05
-29.35
-33.34
-37.57
-42.62
-48.55
-54.86
-60.64
-65.10
-67.86
-69.16
-69.65
-70.03
-70.67
-71.62
-72.59
-73.15
-72.99
-71.89
-69.78
-66.57
-62.21
-56.72
-50.36
-43.65
-37.32
-32.07
-28.30
-25.99
-24.79
-24.13
-23.41
-22.16
-20.17
-17.33
-13.77
-9.65
-5.09
-0.10
5.43
11.68
18.76
26.58
34.79
42.65
49.08
52.72
52.24
46.90
36.89
23.53
8.84
-5.07
-16.66
-25.39
-31.50
-35.58
-38.09
-39.32
-39.43
-38.81
-37.92
-37.12
-36.28
-34.69
-31.42
-25.73
-17.54
-7.49
3.25
13.41
21.98
28.41
32.56
34.53
34.58
33.01
30.14
26.35
22.07
17.77
13.93
10.96
9.05
8.11
7.70
7.25
6.26
4.65
2.61
0.57
-1.13
-2.42
-3.52
-4.77
-6.31
-7.93
-9.17
-9.53
-8.82
-7.30
-5.58
-4.44
-4.42
-5.67
-7.87
-10.43
-12.68
-14.13
-14.56
-14.04
-12.86
-11.39
-9.99
-8.74
-7.58
-6.28
-4.63
-2.59
-0.44
1.35
2.30
2.19
1.16
-0.34
-1.74
-2.69
-3.09
-3.15
-3.12
-3.09
-3.07
-2.96
-2.72
-2.40
-2.07
-1.82
-1.54
-1.08
-0.25
0.95
2.39
3.78
4.84
5.37
5.36
4.90
4.20
3.48
2.92
2.68
2.81
3.24
3.78
4.14
4.04
3.30
1.93
0.08
-1.94
-3.84
-5.34
-6.32
-6.79
-6.92
-6.92
-6.98
-7.24
-7.64
-8.05
-8.31
-8.30
-8.15
-8.07
-8.35
-9.18
-10.62
-12.49
-14.48
-16.22
-17.35
-17.65
-16.99
-15.43
-13.08
-10.19
-7.02
-3.90
-1.14
1.03
2.57
3.63
4.44
5.25
6.21
7.23
8.06
8.48
8.42
8.05
7.71
7.67
8.03
8.68
9.38
9.91
10.21
10.33
10.34
10.26
10.01
9.55
8.93
8.32
7.95
7.97
8.32
8.80
9.10
9.00
8.41
7.40
6.12
4.74
3.38
2.12
1.00
-0.02
-0.97
-1.89
-2.83
-3.75
-4.54
-5.07
-5.25
-5.03
-4.46
-3.64
-2.67
-1.61
-0.47
0.82
2.28
3.82
5.26
6.46
7.30
7.80
8.06
8.16
8.08
7.75
7.10
6.22
5.27
4.50
4.03
3.78
3.50
2.89
1.76
0.24
-1.36
-2.69
-3.49
-3.70
-3.46
-2.95
-2.34
-1.74
-1.15
-0.58
-0.01
0.58
1.16
1.70
2.15
2.49
2.64
2.58
2.24
1.63
0.73
-0.45
-1.83
-3.29
-4.70
-5.94
-6.98
-7.87
-8.63
-9.25
-9.60
-9.50
-8.81
-7.51
-5.79
-3.94
-2.31
-1.13
-0.53
-0.49
-0.99
-1.95
-3.36
-5.12
-7.09
-9.01
-10.64
-11.70
-12.11
-11.93
-11.34
-10.57
-9.78
-9.06
-8.41
-7.83
-7.33
-6.91
-6.57
-6.27
-5.92
-5.45
-4.80
-3.95
-2.88
-1.63
-0.22
1.27
2.70
3.91
4.76
5.21
5.31
5.21
5.02
4.84
4.67
4.52
4.34
4.16
4.02
3.95
3.98
4.05
4.14
4.22
4.27
4.31
4.33
4.25
3.92
3.23
2.19
0.94
-0.26
-1.12
-1.44
-1.21
-0.55
0.25
0.98
1.46
1.60
1.37
0.75
-0.19
-1.32
-2.41
-3.28
-3.83
-4.14
-4.40
-4.80
-5.40
-6.11
-6.77
-7.30
-7.78
-8.36
-9.16
-10.05
-10.71
-10.73
-9.86
-8.16
-5.92
-3.55
-1.37
0.50
2.07
3.41
4.46
5.13
5.36
5.23
4.90
4.62
4.51
4.56
4.64
4.63
4.45
4.12
3.75
3.35
2.95
2.53
2.11
1.82
1.79
2.06
2.51
2.93
3.01
2.59
1.68
0.47
-0.71
-1.55
-1.89
-1.72
-1.24
-0.76
-0.48
-0.55
-0.84
-1.12
-1.13
-0.79
-0.22
0.35
0.69
0.78
0.78
0.89
1.23
1.63
1.70
1.10
-0.29
-2.24
-4.27
-5.89
-6.87
-7.21
-7.15
-6.87
-6.40
-5.62
-4.39
-2.64
-0.52
1.73
3.87
5.75
7.33
8.57
9.39
9.70
9.46
8.74
7.73
6.67
5.78
5.18
4.91
4.89
5.04
5.23
5.35
5.30
5.09
4.79
4.54
4.43
4.49
4.65
4.85
4.99
5.13
5.21
5.16
4.85
4.11
2.91
1.36
-0.29
-1.74
-2.75
-3.26
-3.37
-3.22
-3.04
-2.93
-2.97
-3.14
-3.41
-3.69
-3.96
-4.27
-4.73
-5.45
-6.49
-7.75
-9.01
-10.02
-10.52
-10.42
-9.74
-8.61
-7.27
-5.88
-4.59
-3.44
-2.43
-1.53
-0.71
0.03
0.65
1.03
1.17
1.08
0.88
0.72
0.69
0.86
1.14
1.43
1.55
1.47
1.20
0.95
0.95
1.37
2.21
3.28
4.33
5.10
5.51
5.59
5.46
5.21
4.90
4.58
4.30
4.14
4.14
4.28
4.39
4.28
3.86
3.15
2.32
1.52
0.79
0.09
-0.69
-1.56
-2.49
-3.39
-4.25
-5.10
-6.02
-6.98
-7.84
-8.41
-8.52
-8.24
-7.79
-7.53
-7.77
-8.69
-10.20
-12.02
-13.71
-14.82
-15.02
-14.21
-12.53
-10.30
-7.93
-5.74
-3.99
-2.76
-1.98
-1.55
-1.29
-0.95
-0.29
0.84
2.39
4.13
5.71
6.83
7.34
7.33
7.04
6.71
6.46
6.30
6.14
5.86
5.38
4.75
4.04
3.40
2.96
2.80
2.95
3.31
3.73
4.00
4.00
3.66
3.07
2.34
1.64
1.10
0.75
0.60
0.66
0.92
1.31
1.73
2.03
2.09
1.79
1.16
0.36
-0.36
-0.75
-0.75
-0.44
-0.05
0.18
0.12
-0.17
-0.54
-0.83
-1.00
-1.14
-1.43
-2.07
-3.17
-4.69
-6.50
-8.41
-10.25
-11.87
-13.11
-13.82
-13.91
-13.35
-12.27
-10.89
-9.46
-8.22
-7.25
-6.50
-5.80
-5.02
-4.05
-2.91
-1.74
-0.63
0.25
0.81
1.00
0.81
0.34
-0.22
-0.61
-0.61
-0.13
0.73
1.74
2.69
3.38
3.80
4.02
4.09
4.03
3.77
3.32
2.78
2.33
2.14
2.31
2.81
3.52
4.30
5.00
5.50
5.80
5.93
5.95
5.91
5.82
5.63
5.25
4.58
3.63
2.50
1.41
0.61
0.13
-0.04
-0.12
-0.29
-0.66
-1.21
-1.81
-2.35
-2.76
-3.05
-3.30
-3.56
-3.80
-3.98
-4.03
-3.98
-4.00
-4.26
-4.90
-5.95
-7.31
-8.75
-10.02
-10.83
-11.03
-10.59
-9.57
-8.09
-6.29
-4.28
-2.18
-0.13
1.68
3.05
3.84
4.05
3.86
3.59
3.49
3.67
4.03
4.30
4.25
3.84
3.23
2.71
2.57
2.94
3.83
5.09
6.54
7.94
9.07
9.72
9.73
9.07
7.88
6.46
5.16
4.27
3.83
3.72
3.73
3.67
3.47
3.15
2.74
2.24
1.69
1.18
0.88
0.93
1.35
2.01
2.62
2.94
2.84
2.39
1.78
1.23
0.88
0.74
0.75
0.77
0.69
0.47
0.10
-0.41
-1.02
-1.74
-2.59
-3.53
-4.53
-5.52
-6.39
-7.14
-7.77
-8.37
-9.00
-9.64
-10.12
-10.29
-9.99
-9.19
-7.98
-6.59
-5.26
-4.22
-3.58
-3.24
-3.03
-2.69
-2.03
-1.07
0.12
1.38
2.60
3.67
4.54
5.10
5.27
5.02
4.39
3.59
2.83
2.35
2.23
2.47
2.94
3.47
3.90
4.05
3.90
3.44
2.73
1.87
0.97
0.09
-0.66
-1.16
-1.39
-1.36
-1.18
-1.01
-0.91
-0.81
-0.55
0.06
1.00
2.02
2.71
2.72
1.91
0.49
-1.14
-2.55
-3.43
-3.70
-3.47
-2.97
-2.50
-2.27
-2.47
-3.09
-4.05
-5.16
-6.25
-7.14
-7.74
-8.04
-8.13
-8.18
-8.33
-8.72
-9.31
-9.94
-10.28
-10.08
-9.15
-7.52
-5.46
-3.30
-1.36
0.13
1.09
1.55
1.67
1.68
1.81
2.19
2.78
3.44
3.94
4.13
4.01
3.77
3.66
3.91
4.60
5.67
6.98
8.33
9.56
10.52
11.16
11.42
11.32
10.89
10.25
9.45
8.58
7.74
6.98
6.39
6.01
5.88
5.89
5.88
5.67
5.14
4.29
3.21
2.03
0.79
-0.54
-2.07
-3.89
-5.99
-8.29
-10.61
-12.80
-14.71
-16.30
-17.60
-18.69
-19.71
-20.82
-22.12
-23.62
-25.15
-26.39
-27.01
-26.76
-25.57
-23.66
-21.39
-19.25
-17.67
-16.90
-16.98
-17.72
-18.79
-19.83
-20.55
-20.68
-20.05
-18.55
-16.18
-13.09
-9.55
-5.88
-2.31
1.14
4.62
8.32
12.33
16.64
21.16
25.86
30.74
35.71
40.57
45.04
48.89
52.19
55.34
58.82
62.90
67.39
71.63
74.87
76.59
76.69
75.46
73.29
70.50
67.23
63.69
60.13
56.90
54.22
52.09
50.13
47.84
44.71
40.40
34.74
27.67
19.23
9.63
-0.59
-10.50
-18.97
-25.06
-28.33
-29.17
-28.62
-27.98
-28.31
-29.96
-32.53
-35.14
-36.87
-37.03
-35.37
-32.02
-27.28
-21.53
-15.28
-9.18
-3.95
-0.25
1.54
1.58
0.49
-0.74
-1.09
0.29
3.74
9.16
15.80
22.47
27.82
30.77
30.92
28.82
25.76
23.32
22.67
24.07
26.88
29.87
31.81
31.96
30.30
27.33
23.82
20.42
17.53
15.16
13.09
10.95
8.41
5.44
2.36
-0.25
-1.79
-1.94
-0.80
1.23
3.69
6.44
9.75
14.06
19.54
25.77
31.65
35.80
37.23
35.89
32.85
29.99
29.28
32.09
38.56
47.38
55.85
60.25
56.48
40.92
11.68
-30.46
-81.48
-134.69
-182.32
-217.75
-237.31
-241.10
-232.33
-215.68
-195.47
-174.54
-154.09
-134.42
-115.72
-98.52
-83.53
-71.15
-60.98
-51.90
-42.58
-32.20
-20.85
-9.55
0.29
7.64
12.32
15.10
17.26
19.95
23.64
27.97
32.04
34.83
35.68
34.40
31.27
26.74
21.28
15.22
8.78
2.19
-4.23
-10.01
-14.62
-17.52
-18.38
-17.22
-14.43
-10.77
-7.08
-4.12
-2.34
-1.90
-2.74
-4.75
-7.85
-11.92
-16.73
-21.98
-27.34
-32.41
-36.73
-39.74
-40.75
-39.11
-34.70
-28.32
-21.79
-17.34
-16.60
-19.70
-24.96
-29.50
-30.43
-26.03
-16.28
-2.54
13.30
29.79
46.12
62.00
77.09
90.78
102.22
110.73
116.27
119.54
121.76
124.06
127.04
130.44
133.20
133.82
130.94
123.74
112.27
97.38
80.52
63.33
47.25
33.19
21.50
12.10
4.79
-0.61
-4.18
-6.05
-6.59
-6.34
-5.89
-5.57
-5.33
-4.88
-4.10
-3.23
-2.78
-3.23
-4.61
-6.48
-8.18
-9.25
-9.72
-9.94
-10.10
-9.95
-8.88
-6.29
-2.21
2.61
7.04
10.11
11.54
11.75
11.51
11.36
11.35
11.05
9.91
7.61
4.41
0.93
-2.15
-4.48
-6.28
-8.18
-10.97
-15.11
-20.57
-26.81
-33.09
-38.76
-43.47
-47.12
-49.87
-51.89
-53.39
-54.48
-55.22
-55.52
-55.13
-53.72
-50.98
-46.91
-41.88
-36.57
-31.83
-28.29
-26.19
-25.37
-25.34
-25.51
-25.42
-24.90
-23.93
-22.68
-21.25
-19.66
-17.87
-15.96
-14.07
-12.37
-11.00
-9.88
-8.82
-7.55
-5.93
-4.02
-2.02
-0.12
1.62
3.26
4.79
6.09
6.88
6.92
6.12
4.69
3.09
1.79
1.14
1.23
1.92
2.98
4.20
5.45
6.73
8.06
9.38
10.53
11.30
11.45
10.93
9.95
8.90
8.20
8.07
8.43
8.92
9.15
8.92
8.29
7.50
6.80
6.29
5.91
5.54
5.14
4.80
4.65
4.75
5.01
5.17
5.01
4.39
3.33
2.03
0.67
-0.70
-2.15
-3.86
-5.95
-8.37
-10.97
-13.46
-15.54
-16.97
-17.67
-17.65
-16.99
-15.86
-14.39
-12.66
-10.67
-8.37
-5.80
-3.12
-0.58
1.50
2.88
3.50
3.45
3.01
2.52
2.20
2.17
2.42
2.72
2.90
2.79
2.38
1.76
1.08
0.47
-0.01
-0.31
-0.37
-0.08
0.63
1.70
2.91
3.94
4.49
4.48
3.99
3.24
2.47
1.79
1.22
0.77
0.48
0.43
0.66
1.02
1.19
0.89
-0.04
-1.46
-3.00
-4.23
-4.89
-5.01
-4.86
-4.81
-5.06
-5.61
-6.30
-6.91
-7.37
-7.70
-8.04
-8.47
-8.98
-9.44
-9.66
-9.47
-8.75
-7.41
-5.44
-2.96
-0.20
2.45
4.58
5.91
6.37
6.19
5.74
5.39
5.36
5.72
6.42
7.35
8.42
9.56
10.66
11.52
11.91
11.69
10.86
9.54
8.02
6.64
5.67
5.20
5.16
5.34
5.44
5.30
4.89
4.36
3.91
3.72
3.80
4.01
4.16
4.06
3.65
2.90
1.87
0.70
-0.43
-1.35
-1.88
-2.02
-1.91
-1.81
-2.01
-2.68
-3.70
-4.82
-5.72
-6.28
-6.56
-6.87
-7.47
-8.49
-9.77
-11.05
-12.11
-12.87
-13.41
-13.87
-14.28
-14.51
-14.38
-13.77
-12.67
-11.17
-9.41
-7.45
-5.37
-3.23
-1.15
0.70
2.13
3.11
3.69
4.09
4.48
4.89
5.19
5.20
4.81
4.13
3.49
3.36
4.25
6.54
10.47
16.06
23.06
30.85
38.46
44.77
48.70
49.58
47.37
42.66
36.38
29.44
22.48
15.69
9.04
2.40
-4.22
-10.64
-16.55
-21.70
-25.96
-29.38
-32.09
-34.28
-36.18
-37.98
-39.82
-41.77
-43.74
-45.41
-46.24
-45.60
-42.99
-38.34
-32.12
-25.24
-18.80
-13.62
-10.01
-7.83
-6.62
-5.95
-5.59
-5.41
-5.17
-4.36
-2.18
2.11
8.89
17.65
27.05
35.36
41.19
44.32
45.80
47.58
51.43
57.89
65.73
72.16
73.64
67.00
50.53
24.53
-8.45
-43.92
-76.23
-99.72
-110.00
-105.10
-86.00
-56.26
-20.94
14.86
47.12
73.40
92.83
105.63
112.48
114.21
111.61
105.75
97.98
90.00
83.44
79.56
78.79
80.55
83.50
85.98
86.59
84.70
80.58
74.82
67.84
59.19
47.13
28.85
1.53
-35.71
-80.42
-126.26
-164.83
-188.01
-190.84
-173.42
-140.66
-100.23
-59.28
-22.92
6.57
27.46
38.38
37.94
25.63
3.16
-24.89
-51.00
-67.84
-69.94
-57.46
-34.30
-6.59
19.42
39.03
49.28
49.36
38.11
15.19
-20.44
-67.01
-119.07
-168.87
-209.26
-237.20
-253.72
-265.07
-262.66
-240.16
-195.21
-131.86
-58.94
14.19
72.60
114.74
140.53
152.05
151.75
144.10
136.25
134.11
141.05
155.97
175.01
190.66
195.94
184.95
155.48
109.47
52.40
-7.37
-60.07
-95.49
-107.48
-94.91
-63.53
-23.58
13.96
40.67
52.78
50.48
36.44
12.36
-21.26
-64.29
-114.86
-167.96
-216.31
-252.74
-272.97
-276.74
-267.87
-252.03
-234.40
-217.91
-202.45
-185.87
-165.75
-141.05
-112.96
-84.74
-60.30
-42.49
-32.16
-28.11
-28.06
-29.89
-32.67
-37.07
-44.88
-57.88
-76.54
-99.29
-122.43
-141.00
-150.29
-147.34
-132.11
-107.32
-77.29
-46.15
-16.32
11.86
39.49
67.81
97.23
126.95
155.66
182.10
205.25
223.96
236.78
242.22
239.75
230.76
218.89
209.19
206.63
214.76
235.14
267.56
310.27
359.67
409.91
452.54
477.83
477.64
448.78
395.16
327.35
259.18
202.99
165.57
146.47
139.27
134.82
124.88
104.72
73.99
35.81
-4.94
-43.46
-76.43
-102.53
-122.12
-136.54
-147.07
-154.39
-158.22
-158.01
-153.60
-145.96
-137.12
-129.55
-125.08
-123.94
-124.87
-125.85
-125.40
-123.36
-120.79
-119.05
-118.62
-118.60
-117.14
-112.51
-104.35
-93.95
-83.80
-76.61
-74.19
-76.87
-83.45
-91.70
-99.14
-103.88
-105.18
-103.62
-100.57
-97.46
-95.03
-93.03
-90.57
-86.78
-81.40
-75.03
-68.77
-63.61
-59.92
-57.26
-54.74
-51.52
-47.10
-41.52
-35.24
-29.00
-23.60
-19.70
-17.61
-17.21
-17.85
-18.40
-17.47
-13.82
-6.82
3.08
14.40
24.94
32.68
36.69
37.73
38.06
40.43
46.83
57.32
69.95
81.78
90.21
94.19
94.37
92.21
89.00
85.17
80.33
74.05
66.52
58.72
52.04
47.50
45.18
44.38
44.20
44.19
44.59
46.01
48.68
52.04
54.76
55.32
52.76
47.10
39.13
30.04
20.89
12.38
4.95
-1.03
-5.39
-8.30
-10.40
-12.74
-16.28
-21.38
-27.63
-34.02
-39.48
-43.34
-45.44
-45.94
-45.11
-43.11
-40.06
-36.19
-31.79
-27.15
-22.50
-17.84
-13.10
-8.31
-3.74
0.14
2.79
3.89
3.47
1.75
-0.88
-4.18
-8.13
-12.87
-18.54
-25.03
-31.72
-37.64
-41.71
-43.06
-41.41
-37.04
-30.67
-23.20
-15.48
-8.35
-2.58
1.09
2.14
0.61
-2.63
-6.11
-8.25
-8.08
-5.81
-2.70
-0.54
-0.72
-3.50
-7.83
-11.63
-12.63
-9.16
-0.95
10.78
23.43
33.87
39.39
38.67
32.45
23.55
16.18
14.69
22.18
39.28
63.53
89.89
111.91
123.53
120.89
103.39
74.10
38.90
4.99
-21.02
-34.60
-34.39
-22.13
-1.72
21.98
44.58
62.97
75.55
81.92
82.38
77.70
69.11
58.35
47.62
39.19
34.74
34.90
39.04
45.61
52.93
59.79
65.83
71.36
76.90
82.51
87.36
89.67
87.11
77.76
61.14
38.96
14.86
-6.49
-21.11
-27.16
-25.44
-19.22
-12.77
-9.89
-12.38
-19.36
-27.48
-32.31
-30.39
-21.13
-7.95
2.62
3.36
-10.69
-40.12
-81.33
-128.03
-173.45
-211.65
-237.97
-249.08
-243.65
-223.48
-194.13
-163.85
-140.44
-127.42
-121.83
-115.42
-98.92
-67.48
-23.92
22.00
57.61
72.76
63.43
32.43
-12.94
-63.98
-113.19
-155.29
-186.78
-205.38
-209.87
-200.45
-179.05
-149.22
-115.25
-80.99
-48.83
-19.52
7.42
32.90
57.39
80.27
99.93
114.41
122.01
122.11
115.58
104.13
89.61
73.31
55.57
36.06
14.35
-9.57
-34.95
-60.35
-83.88
-103.41
-116.75
-122.17
-118.90
-107.70
-91.01
-72.57
-56.50
-46.21
-43.56
-48.63
-60.09
-75.84
-93.62
-111.31
-126.88
-138.32
-143.58
-140.65
-128.35
-106.88
-77.96
-44.44
-9.48
24.43
56.11
85.77
114.73
144.59
176.45
210.11
243.54
272.96
293.71
301.78
295.43
276.08
247.82
215.79
184.13
154.78
127.63
101.89
77.54
56.05
39.75
30.44
28.26
31.58
37.88
45.02
52.10
59.39
67.44
76.17
84.36
90.11
91.64
88.08
79.87
68.44
55.51
42.48
30.18
18.91
8.89
0.46
-5.93
-9.81
-11.07
-9.97
-7.13
-3.27
0.96
5.04
8.52
10.94
11.97
11.36
9.18
5.74
1.59
-2.67
-6.50
-9.54
-11.81
-13.51
-14.96
-16.42
-17.92
-19.27
-20.28
-20.84
-21.04
-21.18
-21.43
-21.68
-21.53
-20.45
-18.23
-15.18
-12.09
-9.85
-9.09
-9.82
-11.50
-13.34
-14.57
-14.76
-13.82
-11.99
-9.61
-7.08
-4.68
-2.54
-0.66
1.18
3.17
5.48
8.05
10.68
13.12
15.22
16.92
18.26
19.20
19.60
19.30
18.17
16.25
13.77
11.03
8.28
5.68
3.27
1.02
-0.99
-2.74
-4.26
-5.64
-7.02
-8.52
-10.09
-11.54
-12.52
-12.72
-12.01
-10.56
-8.72
-7.01
-5.92
-5.77
-6.73
-8.70
-11.34
-14.09
-16.32
-17.44
-17.16
-15.57
-13.13
-10.57
-8.51
-7.37
-7.23
-7.86
-8.91
-10.09
-11.19
-12.11
-12.93
-13.82
-15.06
-16.84
-19.17
-21.65
-23.44
-23.51
-20.89
-15.25
-7.01
2.62
12.11
20.05
25.58
28.51
29.21
28.32
26.41
23.97
21.28
18.55
16.08
14.12
12.97
12.77
13.43
14.59
15.72
16.29
15.90
14.49
12.31
9.76
7.29
5.21
3.61
2.42
1.56
0.88
0.34
-0.06
-0.36
-0.59
-0.86
-1.35
-2.16
-3.32
-4.67
-5.88
-6.64
-6.77
-6.31
-5.53
-4.77
-4.34
-4.46
-5.18
-6.40
-7.95
-9.54
-10.80
-11.50
-11.54
-11.07
-10.57
-10.53
-11.26
-12.68
-14.30
-15.39
-15.27
-13.62
-10.51
-6.47
-2.19
1.71
4.79
6.85
7.88
7.94
7.15
5.76
4.09
2.65
1.92
2.16
3.22
4.63
5.76
6.16
5.75
4.83
3.95
3.53
3.65
4.08
4.37
4.12
3.13
1.51
-0.50
-2.56
-4.36
-5.72
-6.48
-6.60
-6.18
-5.41
-4.51
-3.66
-2.96
-2.38
-1.90
-1.51
-1.32
-1.46
-2.00
-2.84
-3.72
-4.36
-4.56
-4.37
-4.01
-3.75
-3.85
-4.42
-5.44
-6.82
-8.39
-9.98
-11.30
-12.05
-11.87
-10.54
-8.05
-4.66
-0.86
2.78
5.65
7.37
7.78
7.05
5.56
3.77
2.08
0.70
-0.34
-1.10
-1.64
-2.01
-2.29
-2.61
-3.23
-4.44
-6.35
-8.77
-11.27
-13.31
-14.56
-15.09
-15.26
-15.70
-16.95
-19.33
-22.74
-26.72
-30.37
-32.58
-32.34
-29.03
-22.84
-14.75
-6.31
0.82
5.48
7.26
6.58
4.40
1.90
0.11
-0.36
0.64
2.73
5.24
7.37
8.46
8.09
6.27
3.31
-0.24
-3.59
-6.03
-6.96
-6.11
-3.61
0.01
4.06
7.83
10.79
12.68
13.51
13.49
13.02
12.55
12.46
12.96
14.04
15.50
17.08
18.53
19.64
20.24
20.15
19.22
17.49
15.25
12.94
11.02
9.69
8.84
8.13
7.23
6.04
4.73
3.55
2.61
1.86
1.01
-0.18
-1.75
-3.52
-5.09
-6.14
-6.54
-6.37
-5.88
-5.32
-4.86
-4.57
-4.49
-4.62
-4.97
-5.51
-6.11
-6.65
-7.03
-7.22
-7.26
-7.26
-7.35
-7.63
-8.19
-8.99
-9.95
-10.89
-11.52
-11.56
-10.86
-9.50
-7.72
-5.84
-4.09
-2.60
-1.44
-0.62
-0.17
-0.07
-0.23
-0.45
-0.50
-0.16
0.71
2.09
3.94
6.04
8.17
10.03
11.35
11.94
11.73
10.82
9.41
7.79
6.12
4.58
3.29
2.30
1.65
1.22
0.85
0.35
-0.34
-1.16
-1.90
-2.28
-2.17
-1.56
-0.57
0.57
1.64
2.45
2.85
2.74
2.13
1.08
-0.24
-1.66
-3.04
-4.44
-5.93
-7.58
-9.36
-11.04
-12.37
-13.17
-13.47
-13.52
-13.57
-13.76
-13.98
-13.97
-13.54
-12.66
-11.55
-10.49
-9.63
-8.89
-8.04
-6.90
-5.51
-4.10
-2.95
-2.21
-1.74
-1.24
-0.39
0.94
2.61
4.34
5.86
7.00
7.79
8.39
8.92
9.46
9.91
10.08
9.74
8.77
7.26
5.48
3.78
2.46
1.64
1.25
1.12
0.99
0.78
0.53
0.36
0.33
0.35
0.21
-0.35
-1.43
-3.03
-4.92
-6.84
-8.66
-10.34
-12.01
-13.80
-15.76
-17.87
-20.03
-22.18
-24.32
-26.51
-28.85
-31.47
-34.48
-37.96
-41.98
-46.61
-51.88
-57.76
-64.02
-70.21
-75.83
-80.47
-84.06
-87.02
-90.10
-94.13
-99.62
-106.49
-114.11
-121.65
-128.45
-134.30
-139.52
-144.77
-150.86
-158.51
-168.00
-178.73
-188.97
-195.89
-196.27
-187.55
-168.84
-141.54
-108.89
-74.79
-42.40
-13.10
13.87
40.99
71.40
107.53
149.62
195.00
238.43
273.59
295.33
301.40
292.89
273.21
246.37
215.90
184.65
155.58
132.18
117.77
114.13
120.23
132.26
145.41
155.68
161.17
161.57
156.43
143.91
120.81
84.16
33.80
-25.88
-86.22
-136.65
-168.02
-175.63
-160.50
-128.38
-87.35
-44.84
-5.85
27.58
55.79
80.32
102.89
125.07
148.39
174.00
202.28
232.27
261.44
286.50
304.65
314.59
316.79
312.97
305.47
296.73
288.81
282.49
276.66
268.31
254.17
233.28
208.77
187.19
175.29
175.66
184.03
190.52
184.61
160.79
121.84
77.36
38.54
12.60
-0.05
-4.44
-7.07
-12.11
-20.28
-29.81
-39.01
-48.03
-59.16
-74.95
-96.31
-121.71
-147.46
-169.88
-186.30
-194.99
-194.38
-182.66
-158.59
-123.51
-83.37
-47.34
-25.86
-25.73
-46.64
-81.28
-119.11
-151.00
-172.90
-186.75
-196.03
-204.70
-214.60
-225.87
-238.51
-253.54
-271.36
-289.92
-305.18
-310.22
-302.79
-286.66
-270.12
-261.88
-266.42
-280.01
-292.22
-292.71
-273.07
-234.57
-184.52
-130.51
-76.88
-25.09
25.59
83.14
131.93
166.93
180.64
169.07
135.08
86.32
30.30
-27.26
-84.33
-143.54
-205.71
-272.61
-343.13
-411.80
-455.34
-455.20
-405.38
-317.37
-214.25
-115.16
-32.63
23.08
57.55
76.15
80.37
71.36
51.96
27.15
6.12
-3.17
1.76
17.11
32.94
38.34
28.03
3.64
-28.79
-60.70
-88.39
-110.98
-127.73
-138.46
-143.28
-141.96
-134.31
-121.92
-106.26
-89.44
-73.21
-57.90
-43.40
-29.21
-14.66
0.49
15.89
30.94
44.75
56.88
67.88
78.90
91.51
107.23
126.65
149.21
173.38
196.91
217.73
234.54
247.10
256.62
265.55
276.72
292.36
313.08
336.91
359.63
375.77
380.70
372.65
353.58
328.73
304.74
287.41
279.84
281.94
290.80
301.49
308.11
304.91
287.81
255.96
212.67
164.70
120.00
84.48
59.67
42.32
26.35
5.93
-21.81
-55.86
-92.28
-126.07
-152.94
-170.08
-176.19
-171.42
-157.19
-136.20
-112.17
-89.30
-71.30
-60.67
-58.05
-62.05
-69.79
-77.73
-82.54
-82.17
-76.23
-65.92
-53.48
-41.16
-30.44
-21.68
-14.31
-7.31
0.07
8.00
15.98
23.20
28.82
32.33
33.55
32.77
30.48
27.22
23.42
19.16
14.30
8.59
1.86
-5.75
-13.75
-21.45
-28.20
-33.59
-37.62
-40.59
-42.91
-44.89
-46.58
-47.84
-48.44
-48.24
-47.18
-45.35
-42.97
-40.24
-37.35
-34.35
-31.25
-28.06
-24.80
-21.62
-18.78
-16.59
-15.35
-15.21
-16.07
-17.60
-19.38
-20.91
-21.80
-21.86
-21.10
-19.87
-18.75
-18.42
-19.46
-22.11
-26.08
-30.65
-34.90
-38.01
-39.59
-39.74
-38.88
-37.53
-36.11
-34.81
-33.68
-32.71
-31.89
-31.19
-30.50
-29.68
-28.58
-27.19
-25.60
-24.01
-22.62
-21.48
-20.58
-19.79
-18.97
-18.05
-16.99
-15.74
-14.27
-12.52
-10.48
-8.25
-6.00
-3.92
-2.15
-0.73
0.41
1.35
2.12
2.69
2.94
2.79
2.24
1.38
0.44
-0.39
-0.98
-1.32
-1.49
-1.59
-1.72
-1.91
-2.18
-2.45
-2.66
-2.73
-2.59
-2.30
-2.00
-1.86
-2.08
-2.71
-3.64
-4.63
-5.43
-5.82
-5.79
-5.41
-4.81
-4.10
-3.31
-2.46
-1.57
-0.67
0.18
0.92
1.61
2.34
3.14
4.03
4.87
5.52
5.88
5.95
5.85
5.71
5.53
5.17
4.44
3.17
1.35
-0.81
-3.04
-5.01
-6.51
-7.43
-7.75
-7.48
-6.65
-5.26
-3.32
-0.92
1.84
4.75
7.52
9.88
11.62
12.70
13.19
13.28
13.14
12.89
12.63
12.38
12.23
12.25
12.48
13.00
13.85
15.03
16.51
18.16
19.80
21.19
22.14
22.56
22.48
22.00
21.18
20.01
18.39
16.28
13.82
11.36
9.30
7.94
7.34
7.23
7.24
7.02
6.41
5.44
4.19
2.61
0.60
-1.98
-5.09
-8.44
-11.63
-14.25
-16.08
-17.17
-17.70
-17.89
-17.84
-17.55
-16.96
-16.04
-14.86
-13.60
-12.49
-11.74
-11.45
-11.63
-12.08
-12.50
-12.53
-11.82
-10.22
-7.83
-4.98
-2.08
0.49
2.60
4.32
5.91
7.60
9.46
11.41
13.23
14.74
15.84
16.50
16.70
16.42
15.63
14.39
12.84
11.15
9.43
7.69
5.78
3.47
0.62
-2.69
-6.27
-9.76
-12.84
-15.34
-17.21
-18.52
-19.36
-19.85
-20.08
-20.08
-19.81
-19.10
-17.81
-15.82
-13.17
-10.15
-7.23
-4.83
-3.23
-2.37
-1.97
-1.69
-1.33
-0.93
-0.66
-0.71
-1.16
-1.90
-2.80
-3.76
-4.81
-6.05
-7.63
-9.56
-11.71
-13.73
-15.31
-16.18
-16.27
-15.64
-14.38
-12.57
-10.20
-7.26
-3.87
-0.30
3.01
5.56
7.01
7.22
6.34
4.67
2.58
0.43
-1.50
-3.00
-3.95
-4.29
-4.06
-3.31
-2.16
-0.71
0.95
2.71
4.41
5.81
6.68
6.80
6.14
4.82
3.14
1.38
-0.23
-1.64
-2.85
-3.90
-4.80
-5.51
-6.02
-6.42
-6.92
-7.71
-8.89
-10.39
-11.90
-13.09
-13.66
-13.52
-12.74
-11.55
-10.19
-8.90
-7.80
-6.88
-6.06
-5.22
-4.32
-3.45
-2.80
-2.58
-2.98
-4.04
-5.69
-7.81
-10.25
-12.90
-15.62
-18.15
-20.11
-21.07
-20.69
-18.82
-15.64
-11.57
-7.19
-3.05
0.48
3.30
5.52
7.34
9.01
10.60
11.93
12.72
12.64
11.52
9.40
6.46
3.04
-0.49
-3.80
-6.92
-10.02
-13.46
-17.43
-21.93
-26.71
-31.39
-35.56
-38.89
-41.55
-43.74
-45.60
-46.96
-47.49
-46.87
-44.96
-41.77
-37.48
-33.41
-30.78
-30.21
-31.29
-32.80
-33.43
-32.20
-28.73
-23.11
-18.01
-16.02
-18.57
-25.15
-33.69
-42.04
-48.74
-53.23
-55.45
-58.99
-67.08
-81.18
-100.03
-120.68
-140.52
-158.41
-174.57
-189.85
-209.85
-239.93
-283.27
-339.33
-404.58
-474.39
-544.54
-611.33
-642.65
-614.52
-518.99
-371.17
-201.03
-37.41
102.33
212.44
294.98
355.54
396.05
418.15
424.21
418.44
405.97
390.90
374.06
353.95
328.59
294.17
250.16
200.83
156.21
126.99
118.47
127.11
143.34
156.66
158.66
147.45
127.16
105.23
87.94
79.00
78.75
85.38
95.90
105.44
108.57
100.71
79.96
46.40
6.31
-31.48
-59.67
-75.05
-79.00
-75.23
-67.40
-57.80
-47.78
-38.22
-30.94
-28.29
-31.85
-41.79
-56.04
-70.51
-79.56
-78.53
-64.71
-39.39
-8.00
21.94
43.21
51.61
47.23
33.63
15.67
-2.53
-19.17
-34.46
-48.78
-61.91
-72.64
-79.32
-80.84
-77.18
-68.98
-57.01
-44.32
-31.83
-19.30
-5.80
9.69
27.68
47.94
69.71
92.00
114.18
136.76
160.83
187.44
216.72
247.22
275.93
299.14
313.76
318.52
314.73
305.27
293.34
281.22
269.55
257.68
244.67
230.14
214.48
198.47
182.09
163.85
141.08
111.11
72.74
27.37
-20.91
-66.62
-104.79
-132.48
-149.57
-158.31
-162.12
-164.73
-169.68
-180.49
-200.37
-231.17
-271.78
-317.08
-358.34
-385.67
-391.42
-372.97
-333.44
-280.10
-221.51
-164.97
-115.24
-74.56
-43.51
-21.51
-7.02
2.47
10.08
18.75
30.20
44.16
58.56
70.21
75.76
72.94
61.40
42.99
21.56
2.05
-10.99
-14.78
-9.21
3.24
18.52
32.37
41.75
45.52
44.39
40.31
35.50
31.65
29.50
28.98
29.65
31.15
33.42
36.61
40.70
45.41
50.23
54.65
58.50
62.02
65.63
69.22
71.72
71.19
65.53
53.70
36.56
16.96
-1.19
-14.33
-20.50
-19.88
-14.24
-6.00
2.70
10.50
16.74
21.10
23.36
23.29
20.81
16.20
10.13
3.57
-2.42
-6.88
-9.26
-9.51
-8.04
-5.48
-2.41
0.88
4.40
8.29
12.52
16.80
20.57
23.23
24.47
24.46
23.74
22.98
22.66
22.86
23.24
23.32
22.72
21.40
19.61
17.71
15.99
14.52
13.25
12.06
10.91
9.86
9.02
8.49
8.24
8.13
8.00
7.66
6.98
5.96
4.68
3.35
2.19
1.40
0.95
0.61
-0.02
-1.29
-3.30
-5.82
-8.38
-10.49
-11.87
-12.57
-12.86
-13.07
-13.41
-13.93
-14.58
-15.35
-16.29
-17.42
-18.72
-20.05
-21.24
-22.20
-23.01
-23.88
-25.04
-26.57
-28.21
-29.46
-29.65
-28.30
-25.31
-20.98
-15.96
-10.98
-6.67
-3.23
-0.61
1.52
3.41
5.17
6.67
7.73
8.21
8.14
7.74
7.24
6.83
6.57
6.38
6.19
5.97
5.77
5.61
5.54
5.45
5.26
4.91
4.42
3.94
3.59
3.45
3.51
3.63
3.64
3.43
2.97
2.31
1.54
0.72
-0.12
-0.93
-1.64
-2.24
-2.62
-2.86
-3.02
-3.25
-3.70
-4.39
-5.27
-6.14
-6.89
-7.40
-7.69
-7.84
-8.04
-8.42
-9.15
-10.33
-11.97
-13.93
-16.00
-17.87
-19.33
-20.37
-21.23
-22.28
-23.89
-26.14
-28.75
-31.09
-32.51
-32.50
-30.97
-28.15
-24.50
-20.58
-16.74
-13.24
-10.09
-7.26
-4.75
-2.59
-0.92
0.21
0.84
1.18
1.56
2.27
3.45
4.96
6.48
7.64
8.21
8.15
7.66
6.99
6.40
6.09
6.12
6.48
7.04
7.66
8.16
8.44
8.40
8.03
7.37
6.50
5.53
4.55
3.68
2.99
2.49
2.09
1.68
1.15
0.47
-0.33
-1.15
-1.87
-2.45
-2.90
-3.34
-3.89
-4.71
-5.84
-7.21
-8.71
-10.16
-11.45
-12.56
-13.57
-14.65
-15.92
-17.52
-19.48
-21.81
-24.46
-27.22
-29.71
-31.40
-31.79
-30.55
-27.75
-23.80
-19.33
-14.96
-11.09
-7.84
-5.08
-2.68
-0.55
1.29
2.82
4.04
5.04
5.89
6.58
7.09
7.34
7.35
7.27
7.27
7.52
7.99
8.53
8.83
8.60
7.64
5.95
3.72
1.18
-1.42
-3.94
-6.31
-8.55
-10.71
-12.80
-14.82
-16.80
-18.87
-21.28
-24.31
-28.11
-32.58
-37.38
-42.01
-46.06
-49.47
-52.55
-55.82
-59.74
-64.46
-69.76
-75.27
-80.63
-85.74
-90.71
-95.51
-99.74
-102.62
-103.21
-100.94
-95.83
-88.39
-79.26
-68.96
-57.87
-46.61
-36.39
-28.91
-25.81
-27.88
-34.47
-43.71
-53.21
-61.09
-66.46
-69.51
-70.99
-71.67
-72.12
-72.74
-73.92
-75.96
-78.77
-81.76
-83.83
-83.60
-79.92
-72.42
-61.67
-49.08
-36.39
-25.00
-15.53
-7.61
-0.11
8.22
18.23
29.91
42.45
54.73
66.00
76.28
86.47
97.78
110.88
125.28
139.33
150.75
157.51
158.72
154.79
147.00
136.86
125.52
113.62
101.42
88.88
75.80
61.77
46.47
30.12
13.88
-0.12
-9.39
-12.26
-8.80
-0.98
8.08
15.60
20.43
23.67
28.41
38.92
59.33
92.27
137.84
193.10
252.47
309.21
357.33
393.03
415.14
424.30
421.40
406.62
379.58
340.53
291.64
237.44
183.83
136.13
97.32
67.30
43.69
23.20
3.02
-18.75
-43.12
-70.49
-100.56
-132.13
-162.83
-189.53
-209.30
-220.47
-223.10
-218.81
-209.95
-198.62
-186.20
-173.37
-160.53
-148.11
-136.63
-126.44
-117.49
-109.38
-101.54
-93.59
-85.44
-77.30
-69.55
-62.45
-56.07
-50.22
-44.66
-39.18
-33.84
-29.04
-25.43
-23.63
-23.83
-25.77
-28.66
-31.72
-34.42
-36.67
-38.56
-40.11
-41.18
-41.54
-41.19
-40.43
-39.78
-39.59
-39.81
-40.04
-39.79
-38.90
-37.56
-36.15
-35.04
-34.36
-34.11
-34.31
-34.98
-35.97
-36.86
-37.03
-36.07
-34.04
-31.51
-29.11
-27.18
-25.50
-23.51
-20.85
-17.67
-14.81
-13.31
-13.74
-15.78
-18.26
-19.77
-19.26
-16.64
-12.90
-9.64
-8.40
-9.82
-13.28
-17.21
-19.45
-17.86
-10.81
2.26
20.69
42.82
66.62
90.30
112.33
131.87
148.70
162.94
174.60
182.85
185.85
181.15
166.40
139.62
100.78
52.94
2.80
-40.44
-68.13
-75.45
-63.40
-38.53
-11.37
7.87
12.81
2.40
-20.40
-51.65
-88.55
-129.56
-166.80
-190.55
-192.57
-170.82
-130.51
-80.76
-30.90
12.51
46.88
73.09
93.37
110.02
124.33
136.33
145.36
149.80
148.09
140.03
126.94
110.44
91.79
70.94
46.41
18.03
-14.10
-48.96
-83.79
-114.56
-137.48
-150.29
-153.50
-150.34
-145.33
-143.04
-146.64
-156.80
-171.83
-188.15
-200.52
-203.08
-190.85
-161.74
-119.35
-75.67
-42.13
-29.28
-41.43
-73.17
-110.41
-135.78
-135.29
-104.54
-47.68
20.07
82.61
130.41
162.51
183.00
196.14
203.82
204.80
197.38
182.26
163.36
146.47
136.59
136.82
142.92
149.12
150.03
142.76
127.82
108.72
90.03
75.68
66.62
60.86
55.28
46.75
33.66
16.67
-1.46
-19.31
-33.26
-42.08
-47.37
-52.05
-59.25
-70.96
-86.77
-103.91
-118.92
-127.93
-129.56
-124.82
-116.31
-107.01
-99.49
-93.89
-88.51
-81.38
-70.08
-53.39
-31.37
-5.05
23.56
50.21
70.50
80.22
76.83
63.19
47.09
38.71
46.74
75.53
123.01
180.68
238.70
279.94
292.43
273.44
229.33
170.76
115.49
66.48
25.38
-4.54
-19.35
-16.31
5.63
42.52
82.48
110.70
113.93
89.32
45.11
-4.41
-44.59
-66.64
-70.00
-60.30
-44.64
-28.92
-14.83
-1.50
11.92
25.77
39.59
52.36
62.98
71.19
77.32
82.57
88.12
94.16
100.30
105.78
109.93
112.60
114.63
117.41
122.05
129.15
138.05
147.11
154.24
157.33
154.66
144.75
130.86
115.16
99.59
85.65
74.29
66.08
61.30
60.05
62.20
67.55
74.94
83.09
90.63
96.31
99.18
98.80
95.30
89.23
81.58
72.97
64.06
55.41
47.41
40.21
33.86
28.35
23.60
19.63
16.19
13.10
10.30
7.79
5.50
3.42
1.52
-0.24
-1.80
-3.29
-4.73
-6.13
-7.44
-8.63
-9.67
-10.57
-11.34
-12.03
-12.72
-13.43
-14.18
-14.90
-15.52
-16.00
-16.32
-16.55
-16.78
-17.11
-17.59
-18.17
-18.77
-19.29
-19.66
-19.96
-20.41
-21.25
-22.63
-24.55
-26.74
-28.80
-30.29
-30.99
-31.10
-31.25
-32.33
-35.27
-40.71
-48.77
-59.09
-71.02
-83.98
-97.74
-112.48
-128.64
-146.56
-166.08
-186.35
-206.10
-223.99
-239.26
-252.10
-263.60
-275.52
-289.86
-308.30
-331.64
-359.30
-388.98
-416.96
-438.87
-450.94
-451.08
-439.39
-417.65
-388.32
-353.66
-315.27
-274.34
-232.40
-191.78
-155.73
-128.23
-113.40
-114.51
-132.50
-164.66
-204.39
-242.34
-269.21
-278.95
-270.63
-248.69
-220.82
-195.14
-177.58
-170.49
-172.65
-180.25
-188.15
-191.19
-185.23
-167.80
-138.44
-98.36
-49.86
4.33
61.51
118.96
174.28
225.85
273.15
316.67
357.23
394.85
428.01
453.93
469.64
473.49
466.01
449.83
428.68
405.98
383.66
361.49
337.32
307.74
269.22
219.46
158.77
90.76
21.78
-40.99
-92.05
-129.75
-156.98
-179.91
-205.17
-237.02
-275.30
-315.54
-350.43
-372.27
-375.16
-356.48
-317.32
-262.22
-198.52
-135.08
-80.46
-40.84
-18.16
-9.57
-8.27
-5.86
4.69
26.93
60.07
100.03
141.32
178.79
208.64
228.58
237.50
235.11
221.97
199.66
170.79
139.07
109.20
86.19
74.45
76.24
90.29
111.20
130.69
140.37
135.48
117.17
92.16
69.57
56.34
53.64
56.64
57.17
48.00
26.26
-6.23
-45.35
-88.15
-134.79
-187.34
-246.29
-307.25
-360.38
-393.46
-397.22
-369.77
-317.69
-253.11
-188.62
-132.35
-86.11
-46.68
-9.17
29.94
71.64
115.10
159.01
202.23
243.49
280.31
308.63
323.61
321.18
299.98
262.34
213.75
161.19
111.32
69.04
37.05
16.23
6.10
5.28
11.50
21.55
31.52
37.39
36.14
26.75
10.85
-7.59
-23.64
-33.25
-34.86
-30.07
-22.90
-18.05
-18.89
-26.09
-37.53
-49.38
-57.74
-60.20
-56.57
-48.61
-39.13
-30.79
-25.32
-23.38
-24.77
-28.92
-35.19
-42.74
-50.27
-55.83
-57.12
-52.33
-40.88
-23.92
-3.95
16.20
34.33
49.59
62.36
73.73
84.58
95.05
104.45
111.63
115.53
115.54
111.70
104.51
94.73
83.27
71.12
59.26
48.52
39.39
31.82
25.50
20.37
17.13
17.56
24.19
39.32
63.76
95.95
131.74
165.29
190.64
203.47
202.37
189.02
167.33
141.91
116.63
93.67
73.36
54.80
36.48
17.16
-3.68
-25.20
-44.94
-59.00
-63.26
-55.29
-35.96
-9.97
15.62
33.79
40.21
34.24
18.14
-4.92
-32.81
-64.81
-100.86
-140.11
-180.01
-216.73
-246.62
-267.55
-279.53
-284.27
-284.09
-281.02
-276.70
-272.87
-271.79
-275.74
-285.70
-299.92
-313.40
-319.34
-311.82
-288.51
-251.85
-208.15
-164.85
-127.80
-99.66
-80.06
-66.85
-57.53
-49.56
-40.05
-25.45
-2.22
31.58
74.29
120.14
160.48
186.83
194.38
184.14
162.43
137.88
117.50
103.85
94.72
85.06
69.99
46.82
15.78
-20.79
-59.35
-95.86
-125.89
-144.88
-149.03
-136.46
-108.06
-67.54
-20.08
29.62
78.72
126.40
172.43
215.52
252.43
278.68
290.42
286.26
267.84
238.99
204.10
166.72
129.17
93.17
60.53
33.15
12.19
-3.19
-16.26
-32.16
-56.18
-91.74
-138.87
-193.77
-249.36
-296.72
-327.35
-335.21
-318.38
-279.49
-224.51
-160.72
-94.22
-28.72
34.38
94.53
150.34
198.84
236.23
259.62
268.77
266.73
258.66
249.91
243.77
240.75
239.19
236.94
232.79
227.01
220.65
214.31
207.31
197.95
184.53
166.49
145.07
122.98
103.30
88.07
77.27
68.59
58.06
41.47
15.84
-19.46
-62.34
-108.53
-152.68
-189.72
-215.78
-228.60
-227.38
-212.24
-183.98
-144.32
-96.59
-46.29
-0.75
32.33
46.92
40.67
15.79
-21.58
-63.15
-100.89
-128.78
-143.69
-145.37
-135.97
-119.54
-101.32
-86.81
-80.49
-84.56
-98.26
-118.13
-139.18
-156.32
-165.50
-164.20
-151.35
-127.02
-92.01
-47.67
4.18
61.19
120.40
178.23
230.49
272.92
301.94
315.55
313.91
299.28
275.27
245.84
214.49
183.78
155.53
131.06
111.33
96.70
86.63
79.49
72.93
64.76
53.66
39.77
24.37
9.27
-4.06
-14.98
-23.85
-31.89
-41.32
-55.55
-78.61
-113.77
-161.21
-216.12
-268.70
-306.71
-319.94
-304.09
-262.67
-205.16
-143.19
-86.50
-40.46
-6.13
18.52
36.74
52.03
67.15
83.61
100.80
115.85
124.31
121.92
106.81
80.69
48.90
18.77
-2.55
-10.05
-2.14
19.53
50.80
86.44
121.42
151.90
175.56
191.45
199.64
200.74
195.79
186.16
173.43
159.00
143.73
127.78
110.73
92.19
72.21
51.49
31.10
12.10
-4.94
-20.02
-33.59
-46.32
-58.70
-70.80
-82.04
-91.27
-97.23
-99.03
-96.72
-91.27
-84.02
-75.65
-65.50
-51.93
-33.29
-9.48
17.42
43.76
65.87
81.62
91.05
95.61
96.99
96.37
94.42
91.83
89.50
87.87
86.09
81.67
71.56
53.96
29.90
3.20
-21.34
-40.40
-53.76
-64.14
-75.45
-90.68
-110.73
-134.40
-159.69
-184.72
-208.08
-228.13
-242.06
-245.55
-233.70
-203.05
-153.54
-89.70
-19.76
46.62
101.30
139.86
162.12
170.98
170.43
163.92
153.57
140.59
125.88
110.49
95.57
82.02
70.19
59.79
50.14
40.47
30.13
18.89
6.88
-5.33
-17.06
-27.70
-36.99
-45.13
-52.59
-59.84
-67.06
-74.14
-80.65
-86.19
-90.53
-93.64
-95.66
-96.73
-96.93
-96.16
-94.51
-92.09
-89.38
-86.83
-84.66
-82.67
-80.12
-76.00
-69.39
-60.10
-48.76
-36.74
-25.69
-16.84
-10.61
-6.57
-3.73
-1.15
1.56
4.20
6.22
7.14
7.05
6.56
6.56
7.69
9.93
12.57
14.50
14.80
13.25
10.38
7.15
4.48
2.82
2.10
2.04
2.14
1.30
-2.59
-12.64
-31.87
-61.45
-99.23
-139.54
-174.86
-198.77
-208.40
-205.29
-194.11
-180.05
-166.37
-153.54
-140.03
-123.96
-104.57
-82.51
-59.10
-35.39
-11.57
12.68
37.41
61.75
83.74
100.92
111.41
114.78
112.19
106.00
98.76
92.25
87.01
82.10
75.34
63.85
45.02
17.79
-16.02
-51.51
-81.97
-101.18
-106.03
-97.64
-80.59
-60.44
-41.46
-25.33
-11.96
-1.09
6.45
8.96
5.12
-4.66
-18.10
-32.26
-44.84
-54.99
-62.72
-67.59
-67.97
-61.54
-46.52
-23.29
5.14
33.95
58.23
74.47
81.28
79.04
68.91
52.45
31.37
8.02
-14.51
-32.79
-43.90
-46.51
-41.28
-30.66
-17.95
-6.04
3.47
10.50
15.92
20.71
25.34
29.57
32.87
34.99
36.20
37.26
38.86
41.17
43.60
44.93
43.89
39.62
32.09
21.98
10.46
-1.19
-11.85
-20.80
-27.76
-32.77
-36.12
-38.06
-38.66
-37.70
-34.76
-29.45
-21.65
-11.66
-0.10
12.14
24.15
35.12
44.38
51.34
55.56
56.80
55.18
51.29
46.05
40.58
35.99
33.13
32.36
33.54
36.11
39.12
41.54
42.51
41.64
39.17
35.90
32.94
31.30
31.53
33.46
36.25
38.66
39.44
37.77
33.45
27.01
19.57
12.45
6.75
3.07
1.34
0.96
1.17
1.44
1.75
2.58
4.53
7.90
12.40
17.12
20.87
22.68
22.22
19.86
16.41
12.72
9.30
6.24
3.28
0.08
-3.69
-8.30
-14.08
-21.25
-29.78
-39.22
-48.50
-56.13
-60.51
-60.49
-55.82
-47.45
-37.29
-27.72
-20.88
-18.09
-19.49
-24.13
-30.31
-36.22
-40.37
-42.08
-41.51
-39.58
-37.41
-35.83
-34.80
-32.97
-27.86
-16.38
3.95
33.85
71.44
112.47
151.44
183.18
204.38
214.20
214.01
206.34
193.87
178.71
162.37
145.96
130.37
116.02
102.71
89.45
75.03
58.57
40.19
20.96
2.47
-14.04
-28.39
-41.46
-54.76
-69.39
-85.28
-101.20
-115.46
-126.92
-135.84
-143.85
-153.11
-165.27
-180.85
-199.60
-221.31
-246.17
-273.98
-302.98
-329.15
-347.28
-353.28
-346.46
-330.05
-309.30
-288.30
-267.48
-243.35
-210.67
-165.74
-108.53
-42.52
27.46
97.65
166.55
234.06
299.64
360.90
413.77
454.16
479.90
491.94
493.60
488.72
479.35
464.55
441.17
406.00
358.30
301.04
240.40
183.44
135.48
98.27
69.61
44.82
18.98
-11.02
-45.57
-82.85
-120.15
-155.25
-187.17
-215.95
-241.89
-265.24
-286.36
-306.06
-325.49
-345.32
-364.62
-380.56
-388.99
-386.18
-370.50
-343.20
-307.75
-268.18
-227.68
-187.96
-149.71
-112.92
-77.63
-43.73
-10.27
24.95
64.79
111.38
164.65
221.36
275.85
320.79
348.80
353.95
333.34
288.33
224.98
153.35
85.07
30.79
-3.97
-20.42
-25.33
-27.31
-32.91
-44.71
-61.80
-81.94
-101.39
-117.89
-130.93
-140.46
-145.18
-142.20
-128.74
-104.15
-70.49
-27.75
22.47
75.64
124.84
163.63
188.85
200.90
202.67
198.18
197.69
209.02
233.44
265.98
300.19
332.78
363.96
395.45
428.75
472.61
533.52
611.15
697.83
783.10
857.92
915.46
950.90
908.15
759.12
522.41
257.55
24.52
-147.09
-257.67
-322.26
-357.55
-373.01
-369.84
-347.65
-312.20
-276.36
-253.53
-251.19
-269.93
-306.44
-351.87
-391.21
-413.53
-417.38
-409.76
-399.68
-392.31
-387.87
-383.80
-377.03
-362.77
-338.95
-308.23
-276.95
-251.58
-235.75
-229.55
-229.79
-230.90
-224.76
-204.35
-167.37
-117.68
-63.77
-15.18
20.94
42.07
50.47
51.56
50.65
50.37
50.48
49.45
46.51
42.48
39.18
38.09
39.22
41.20
42.14
40.53
36.21
30.29
24.58
20.66
19.18
19.49
20.05
19.26
16.25
11.33
5.71
0.94
-1.94
-2.91
-2.98
-3.70
-6.29
-10.98
-16.96
-22.67
-26.71
-28.69
-29.17
-29.71
-32.12
-37.65
-46.21
-56.68
-67.25
-75.92
-80.73
-80.16
-73.05
-59.71
-42.53
-25.74
-14.03
-10.40
-14.23
-21.38
-25.58
-21.78
-8.62
11.12
32.31
50.30
62.87
70.41
74.62
76.95
77.66
76.03
71.54
64.63
56.77
49.84
45.39
43.62
43.69
44.09
43.29
40.52
36.03
30.90
26.48
23.77
22.98
23.58
24.54
24.80
23.83
21.75
19.27
17.31
16.56
17.21
18.91
20.91
22.46
23.09
22.82
22.21
21.99
22.81
24.92
28.03
31.44
34.42
36.46
37.68
38.85
41.05
45.08
51.22
58.78
66.23
71.74
73.69
71.01
63.75
52.72
38.84
22.92
5.18
-14.47
-35.72
-58.17
-81.26
-104.32
-126.43
-145.91
-159.78
-164.20
-156.26
-134.57
-101.88
-64.42
-29.76
-3.96
10.62
15.59
14.90
12.46
10.58
9.29
7.74
5.52
3.25
2.18
3.23
6.21
9.94
12.97
14.00
12.83
10.30
7.75
6.43
6.90
8.87
11.37
13.34
13.95
13.11
11.36
9.57
8.53
8.58
9.54
10.88
11.94
12.28
11.80
10.80
9.72
8.96
8.71
8.88
9.24
9.52
9.52
9.20
8.67
8.12
7.68
7.42
7.31
7.27
7.24
7.12
6.92
6.62
6.25
5.80
5.25
4.60
3.83
2.92
1.84
0.55
-0.95
-2.69
-4.69
-6.97
-9.58
-12.50
-15.79
-19.46
-23.52
-27.98
-32.82
-38.06
-43.74
-49.92
-56.63
-63.90
-71.78
-80.32
-89.52
-99.41
-110.06
-121.48
-133.79
-146.96
-160.89
-175.33
-189.85
-203.74
-216.03
-225.67
-231.40
-232.60
-228.26
-217.68
-200.55
-177.03
-147.79
-113.97
-77.17
-39.18
-1.93
32.97
64.36
91.64
114.99
134.94
152.34
167.86
181.90
194.50
205.37
214.17
220.45
224.20
225.36
224.09
220.37
214.22
205.68
195.00
182.81
169.78
156.86
144.79
134.39
126.69
122.94
124.39
130.74
139.55
145.95
144.39
130.83
104.56
68.70
28.32
-11.07
-45.80
-73.58
-93.26
-104.13
-106.19
-101.19
-92.74
-85.99
-85.13
-91.94
-104.33
-117.51
-125.57
-123.84
-110.24
-85.33
-52.00
-14.61
21.60
51.29
70.20
75.71
67.92
49.08
23.42
-4.10
-28.77
-47.08
-57.63
-60.91
-59.66
-57.06
-56.44
-59.68
-67.16
-77.72
-89.19
-99.35
-106.67
-110.95
-112.98
-114.25
-115.58
-116.89
-116.79
-112.99
-103.07
-85.28
-59.17
-25.89
12.16
52.08
91.13
127.02
158.14
183.20
201.33
211.93
214.89
210.66
200.60
187.05
172.33
158.78
147.66
139.20
132.56
126.40
119.38
111.35
103.38
97.13
94.19
95.28
99.68
105.29
110.40
111.59
105.84
90.85
65.46
30.47
-10.75
-52.28
-86.78
-107.48
-112.05
-103.28
-87.94
-73.62
-65.48
-64.55
-68.39
-73.23
-76.49
-77.93
-78.58
-79.44
-80.41
-80.35
-78.06
-73.28
-66.84
-60.48
-56.21
-55.00
-56.58
-59.66
-62.61
-64.27
-64.42
-63.75
-63.52
-65.02
-68.85
-74.94
-82.49
-90.58
-98.54
-106.26
-114.20
-122.99
-133.29
-145.15
-158.31
-172.14
-185.45
-196.84
-204.92
-208.58
-207.01
-199.56
-185.67
-165.55
-139.92
-110.04
-77.62
-44.27
-11.56
19.52
48.09
73.58
95.30
112.65
125.39
133.52
137.89
139.53
139.97
140.31
141.10
142.05
142.30
141.22
138.46
134.81
131.17
128.69
127.67
127.69
128.27
129.27
131.87
136.79
143.56
148.74
147.08
133.55
106.18
68.08
25.90
-12.97
-44.87
-70.85
-95.23
-121.63
-149.64
-175.16
-193.01
-200.60
-198.89
-190.85
-178.19
-159.31
-130.67
-90.00
-39.97
11.67
54.66
80.88
88.52
81.70
68.83
59.16
60.32
75.17
101.36
132.08
158.71
174.30
176.39
168.00
154.06
140.64
130.62
122.84
115.88
109.38
106.90
114.66
137.80
176.24
223.49
268.20
296.57
299.73
275.94
230.33
171.42
107.20
42.41
-21.41
-84.46
-146.51
-205.47
-258.41
-302.48
-336.32
-360.42
-376.74
-387.39
-394.63
-398.89
-398.78
-392.55
-378.87
-357.71
-330.56
-300.00
-269.04
-240.31
-215.49
-195.10
-178.75
-165.40
-153.66
-142.29
-130.29
-117.30
-103.39
-88.96
-74.41
-59.76
-44.59
-27.84
-8.56
13.92
39.19
65.81
91.81
115.07
134.34
149.42
161.46
172.33
184.66
201.42
225.50
258.74
300.30
346.18
389.36
421.69
437.26
435.24
420.07
399.46
381.00
368.56
361.62
355.91
348.32
336.39
319.15
296.75
269.15
236.30
198.11
155.99
112.65
71.52
36.60
10.89
-4.34
-10.32
-9.86
-6.85
-4.62
-5.62
-10.92
-20.40
-33.75
-50.38
-70.08
-92.47
-117.16
-142.90
-167.94
-190.33
-207.99
-220.11
-226.52
-228.07
-225.94
-221.59
-216.19
-210.46
-204.99
-200.01
-196.83
-196.99
-202.28
-213.99
-232.51
-257.01
-285.23
-314.02
-337.52
-350.43
-348.23
-328.06
-289.37
-234.24
-167.42
-95.47
-27.43
30.64
74.30
101.06
110.24
102.85
81.66
50.60
14.59
-20.68
-49.17
-66.37
-69.67
-58.79
-35.59
-3.54
33.09
70.09
103.98
132.58
154.36
168.72
175.79
176.27
171.27
162.28
150.87
138.50
126.43
115.16
104.76
95.04
85.73
76.63
67.75
59.22
51.30
44.25
38.14
32.84
28.13
23.75
19.55
15.49
11.61
8.03
4.91
2.28
0.10
-1.68
-3.19
-4.49
-5.64
-6.64
-7.48
-8.13
-8.63
-8.99
-9.24
-9.43
-9.60
-9.76
-9.89
-10.00
-10.04
-10.03
-9.93
-9.75
-9.51
-9.20
-8.86
-8.50
-8.13
-7.66
-7.18
-6.72
-6.29
-5.87
-5.50
-5.13
-4.80
-4.49
-4.19
-3.94
-3.71
-3.49
-3.30
-3.10
-2.93
-2.76
-2.61
-2.46
-2.33
-2.22
-2.12
-2.02
-1.93
-1.83
-1.76
-1.67
-1.60
-1.54
-1.48
-1.42
-1.38
-1.32
-1.28
-1.24
-1.19
-1.16
-1.12
-1.09
-1.06
-1.04
-1.01
-0.98
-0.96
-0.93
-0.91
-0.89
-0.86
-0.85
-0.83
-0.81
-0.80
-0.77
-0.76
-0.74
-0.73
-0.71
-0.70
-0.69
-0.67
-0.66
-0.64
-0.63
-0.62
-0.61
-0.59
-0.58
-0.57
-0.56
-0.55
-0.56
-0.56
-0.58
-0.61
-0.63
-0.65
-0.67
-0.67
-0.65
-0.63
-0.62
-0.63
-0.65
-0.66
-0.67
-0.63
-0.54
-0.43
-0.32
-0.24
-0.20
-0.23
-0.27
-0.32
-0.31
-0.24
-0.14
-0.05
-0.02
-0.07
-0.24
-0.44
-0.58
-0.60
-0.43
-0.16
0.14
0.31
0.27
0.01
-0.35
-0.59
-0.53
-0.08
0.65
1.43
1.98
2.09
1.77
1.28
1.00
1.29
2.30
3.89
5.51
6.70
7.09
6.75
6.14
6.03
7.09
9.86
14.46
20.44
27.44
34.86
42.03
48.10
52.34
54.31
54.43
53.78
53.66
54.64
55.92
55.54
51.08
41.36
26.85
9.78
-6.91
-20.76
-30.55
-36.49
-39.61
-40.69
-40.31
-38.80
-36.30
-33.20
-29.94
-26.86
-24.34
-22.60
-21.52
-21.00
-21.06
-22.03
-24.59
-29.44
-36.63
-45.06
-52.46
-56.15
-54.32
-47.11
-36.66
-26.33
-19.14
-16.45
-17.56
-20.38
-22.78
-23.49
-22.55
-20.77
-18.88
-17.21
-16.04
-16.10
-18.44
-23.84
-31.65
-39.31
-42.89
-39.12
-27.19
-9.56
8.95
23.36
30.88
31.78
28.58
24.29
20.66
17.75
14.74
11.15
7.17
3.79
1.84
1.29
1.42
0.96
-1.42
-6.31
-13.16
-21.02
-28.54
-34.45
-38.05
-38.85
-36.68
-31.51
-23.15
-11.50
3.22
20.38
38.67
56.21
71.04
81.24
85.48
82.99
74.53
61.26
44.80
26.56
7.61
-11.01
-28.76
-45.13
-59.40
-70.88
-79.09
-82.72
-80.72
-72.52
-57.79
-36.85
-10.66
19.44
51.20
81.80
108.77
129.72
142.87
147.32
143.06
130.07
110.85
87.64
62.69
38.20
15.83
-3.28
-18.51
-29.79
-37.46
-41.92
-44.15
-44.97
-44.99
-44.71
-44.53
-44.55
-44.81
-45.32
-45.91
-46.61
-47.36
-48.19
-49.11
-50.20
-51.57
-53.33
-55.66
-58.75
-62.96
-68.38
-75.02
-82.65
-90.73
-98.42
-104.72
-108.23
-107.67
-102.11
-91.02
-74.43
-52.91
-27.58
-0.13
27.52
53.65
76.87
96.20
111.24
122.10
129.50
134.84
138.67
141.90
145.19
149.20
153.39
156.88
158.64
157.64
152.99
143.89
130.24
112.40
90.20
65.70
40.48
16.03
-6.36
-25.68
-41.38
-53.17
-61.21
-66.00
-68.06
-68.22
-67.18
-65.53
-63.67
-61.88
-60.28
-58.87
-57.74
-56.66
-55.68
-54.77
-53.95
-53.27
-52.80
-52.71
-53.02
-54.02
-55.99
-59.17
-63.72
-69.60
-76.42
-83.48
-89.95
-94.55
-96.08
-93.58
-86.41
-74.85
-59.60
-41.89
-23.38
-5.92
8.89
19.81
26.17
28.07
26.07
21.40
15.67
10.61
7.72
8.13
12.27
19.21
28.36
38.35
47.87
55.97
62.04
66.04
68.27
69.13
68.84
67.68
65.26
61.41
56.37
50.65
45.22
41.00
38.44
37.33
36.95
36.46
34.59
31.01
26.41
22.10
19.41
19.16
21.08
24.36
28.04
31.61
35.05
38.52
42.01
45.69
49.59
54.08
59.93
67.00
73.44
75.62
69.19
51.42
22.34
-11.98
-43.80
-66.37
-77.15
-78.29
-74.93
-72.38
-73.47
-77.52
-81.32
-82.12
-79.00
-73.27
-67.33
-62.77
-59.07
-53.27
-41.55
-21.17
7.16
39.12
68.63
89.99
100.62
101.67
97.38
91.47
87.22
84.68
81.35
74.97
64.18
49.28
30.73
8.38
-18.49
-50.07
-83.21
-111.18
-125.83
-122.41
-102.72
-75.12
-51.18
-39.35
-40.46
-47.42
-49.50
-38.70
-14.77
14.67
38.74
49.15
45.26
33.86
25.13
26.34
38.17
55.04
68.87
74.35
70.90
62.08
51.29
38.65
20.10
-9.08
-50.14
-98.34
-142.91
-173.73
-185.34
-177.80
-154.36
-118.35
-72.37
-19.98
31.93
73.11
92.78
85.50
54.60
11.48
-29.50
-57.21
-68.00
-65.37
-56.16
-46.67
-39.47
-33.82
-28.00
-21.52
-14.94
-8.36
-0.25
13.38
36.13
69.97
112.51
157.20
195.37
219.44
225.92
214.76
192.59
166.06
139.14
111.58
79.72
40.23
-8.39
-62.76
-115.77
-158.56
-184.84
-192.52
-182.57
-161.36
-135.00
-107.26
-79.33
-51.42
-23.67
2.28
24.22
40.52
50.65
55.63
56.84
55.35
51.23
43.95
32.73
17.60
-0.15
-18.61
-35.45
-48.88
-58.20
-63.76
-66.44
-67.25
-66.65
-64.57
-60.87
-55.67
-49.49
-43.27
-38.26
-35.76
-37.14
-43.16
-53.00
-62.95
-68.57
-64.87
-49.08
-22.53
9.43
39.35
60.86
71.23
72.01
67.20
60.92
55.05
49.16
42.00
33.26
24.19
17.06
13.97
15.46
20.43
26.72
32.20
35.95
38.54
41.62
46.80
54.66
63.95
72.01
75.54
72.26
61.50
44.61
24.39
4.01
-13.72
-27.04
-34.52
-35.37
-29.97
-20.56
-11.30
-7.17
-11.84
-25.68
-45.00
-63.34
-74.61
-75.75
-67.80
-54.71
-41.12
-30.40
-23.74
-20.68
-20.03
-20.72
-21.75
-22.22
-21.03
-17.35
-11.19
-3.04
6.14
15.05
22.33
27.34
30.70
34.68
42.61
57.38
79.72
106.94
133.41
152.05
158.46
152.32
137.53
120.34
106.17
96.69
89.37
78.30
57.78
25.46
-16.39
-61.89
-104.03
-137.66
-161.69
-177.59
-188.11
-194.87
-197.24
-193.12
-180.79
-160.58
-134.36
-107.28
-83.25
-63.96
-48.64
-35.16
-21.47
-7.10
6.57
17.14
22.12
20.90
14.81
6.78
0.20
-2.69
-1.38
2.90
7.97
11.81
13.84
14.31
13.64
11.92
9.30
6.64
6.05
10.33
21.47
39.29
60.70
80.68
94.26
98.53
93.67
82.49
68.87
56.17
46.58
40.77
38.80
40.59
46.20
55.33
66.22
75.13
76.41
64.51
37.28
-1.44
-41.83
-71.60
-81.29
-68.85
-40.52
-7.65
19.20
35.25
42.41
45.92
49.44
51.86
46.98
29.88
0.18
-36.16
-68.98
-88.78
-91.48
-79.54
-59.78
-40.00
-25.19
-16.48
-12.32
-10.18
-8.75
-8.38
-10.54
-16.29
-26.11
-39.65
-55.96
-74.24
-94.22
-116.30
-141.12
-168.10
-193.77
-212.36
-217.36
-204.61
-174.80
-133.79
-90.79
-54.93
-31.83
-21.46
-20.05
-22.41
-24.64
-25.36
-24.90
-23.91
-22.43
-19.51
-13.23
-2.73
11.47
27.80
44.29
59.85
75.10
92.70
110.49
129.15
149.11
170.47
193.17
217.38
243.47
271.19
298.89
323.10
340.31
347.12
342.03
326.08
302.27
274.28
244.97
215.94
187.79
161.67
138.82
120.33
106.56
96.61
88.59
80.41
70.83
59.89
49.17
40.52
35.22
33.40
34.07
35.72
36.97
37.23
36.62
35.86
35.36
34.77
33.18
29.56
23.59
16.02
8.64
3.58
2.58
6.18
13.52
22.71
31.54
38.28
42.22
43.83
44.39
45.45
48.22
53.21
60.33
69.06
78.00
85.81
92.21
96.69
98.57
98.38
97.90
99.65
105.57
115.20
125.74
133.70
135.18
127.32
110.03
85.99
59.40
34.10
11.23
-9.15
-24.91
-34.89
-39.34
-38.79
-34.24
-27.28
-19.89
-17.77
-24.69
-35.39
-46.02
-56.34
-66.34
-76.02
-85.34
-94.25
-110.52
-139.21
-168.63
-191.78
-210.20
-226.73
-243.50
-261.59
-281.04
-313.94
-368.24
-425.32
-474.05
-516.80
-558.39
-601.85
-647.65
-694.08
-755.03
-839.36
-921.98
-987.77
-1038.93
-1081.75
-1119.73
-1152.77
-1076.61
-839.27
-602.25
-429.89
-288.01
-169.36
-76.51
-10.49
31.66
56.23
53.52
17.20
-27.09
-64.83
-56.09
13.09
130.26
264.99
389.26
476.70
517.58
534.69
544.83
550.68
547.71
533.69
510.64
483.79
450.67
409.40
372.32
345.73
326.95
308.63
286.44
260.36
233.54
203.24
170.74
143.70
126.21
117.60
113.86
112.49
113.31
117.39
127.47
141.27
158.23
177.08
195.52
210.40
219.93
224.22
224.03
220.73
215.26
208.23
200.42
191.54
180.73
167.49
152.24
134.87
115.96
95.85
75.14
54.44
34.21
14.88
-3.28
-16.39
-25.08
-30.14
-32.59
-32.97
-31.55
-28.40
-23.39
-19.34
-14.31
-7.76
0.96
11.78
24.57
39.11
54.95
71.60
88.53
105.72
122.27
137.93
152.00
164.31
174.93
184.04
191.78
198.14
203.09
205.17
207.87
212.03
217.84
225.04
233.04
241.01
248.14
253.91
257.54
258.63
255.90
248.55
236.28
219.20
197.73
172.44
144.16
113.65
81.84
48.84
14.94
-19.30
-53.14
-85.73
-116.19
-143.64
-167.34
-186.63
-202.32
-215.24
-226.08
-235.16
-242.58
-248.32
-252.17
-253.78
-252.63
-250.81
-250.12
-251.36
-254.16
-257.50
-260.50
-262.51
-263.05
-261.67
-262.87
-270.28
-285.05
-305.42
-328.46
-352.12
-375.82
-399.61
-422.91
-451.11
-486.21
-525.15
-560.66
-585.79
-597.75
-598.36
-591.98
-582.89
-583.27
-601.12
-637.62
-687.13
-741.85
-796.06
-847.18
-894.72
-879.71
-770.50
-571.02
-320.63
-68.15
152.22
326.60
454.90
543.27
599.95
623.93
616.23
582.46
533.59
481.00
432.73
392.73
362.10
340.83
321.35
298.03
267.75
235.87
209.58
194.43
193.16
206.07
231.87
263.73
295.48
321.69
340.82
353.55
361.08
364.14
363.10
358.22
347.70
330.45
307.11
280.56
254.08
230.24
210.22
194.03
180.80
168.58
155.62
141.32
126.75
113.44
102.76
95.25
90.49
87.37
84.52
80.97
76.40
71.44
66.95
63.71
62.37
63.45
67.36
73.74
80.73
84.68
81.17
66.77
41.17
8.18
-25.42
-52.32
-67.85
-71.71
-67.56
-60.75
-55.74
-55.05
-58.89
-66.20
-75.81
-87.04
-99.60
-113.05
-126.54
-138.95
-148.99
-155.88
-159.74
-161.71
-162.96
-163.45
-161.11
-152.31
-133.65
-103.92
-66.01
-25.99
8.68
32.70
45.04
49.41
51.78
57.23
67.42
80.17
91.52
98.20
100.44
101.14
104.02
111.03
121.01
130.44
135.85
136.39
133.46
130.08
127.53
123.91
115.30
98.37
73.03
41.93
14.76
-2.93
-8.65
-4.52
4.27
11.52
12.45
4.48
-13.28
-40.70
-78.37
-122.08
-166.81
-207.33
-238.98
-257.66
-260.38
-246.20
-216.96
-177.71
-134.70
-94.61
-62.44
-40.76
-29.42
-26.08
-27.73
-31.71
-36.25
-39.58
-41.16
-38.71
-30.01
-13.26
11.71
41.98
72.04
94.78
103.47
96.30
77.69
55.87
39.24
32.92
36.68
46.27
56.27
63.03
65.60
64.54
60.65
52.08
36.49
12.82
-16.94
-47.53
-72.00
-84.25
-83.11
-73.60
-63.67
-60.72
-68.24
-84.70
-104.85
-122.42
-132.97
-134.98
-129.45
-117.14
-98.76
-75.07
-47.67
-19.19
8.09
31.64
49.50
60.69
67.20
71.47
75.33
79.36
83.20
87.45
92.33
98.43
106.50
119.48
139.40
166.89
201.76
235.49
263.56
282.88
292.34
278.75
238.17
175.57
102.03
28.25
-39.18
-96.78
-144.19
-181.14
-207.73
-222.38
-226.22
-221.19
-210.00
-194.81
-176.03
-153.71
-126.29
-92.66
-51.30
-2.42
52.15
106.12
153.81
191.22
207.04
195.12
156.47
99.81
36.53
-24.88
-79.61
-125.46
-161.93
-189.86
-209.04
-219.92
-223.11
-219.37
-210.84
-198.99
-183.94
-165.47
-143.55
-116.35
-81.07
-39.87
3.00
41.15
70.07
88.67
97.26
96.22
87.79
75.34
61.05
52.64
47.81
43.57
39.02
33.12
23.99
12.11
0.45
-8.04
-10.36
-3.99
7.46
24.75
48.19
76.30
98.28
107.17
100.08
79.46
51.32
21.38
-5.42
-18.40
-22.10
-20.63
-14.63
-3.56
13.81
41.12
71.90
103.59
132.62
154.22
166.95
172.52
173.56
172.73
174.91
183.28
200.20
224.50
252.27
281.03
309.81
337.62
342.53
311.87
246.16
160.09
71.02
-9.85
-77.41
-130.70
-171.23
-201.44
-221.08
-230.80
-232.09
-228.24
-222.96
-218.19
-214.36
-211.08
-207.97
-202.40
-192.37
-177.02
-156.90
-133.01
-105.68
-75.05
-43.82
-14.62
11.48
33.50
50.60
62.17
68.39
70.76
71.59
73.21
77.29
84.06
90.97
92.93
84.19
61.16
24.75
-19.40
-62.26
-93.74
-107.32
-99.89
-73.01
-32.35
13.90
57.34
91.26
112.09
119.93
117.73
109.59
99.68
91.39
87.38
90.07
101.32
122.06
151.05
183.99
213.60
232.10
234.37
220.58
196.09
168.73
144.95
125.72
108.99
89.50
62.63
27.83
-10.63
-46.21
-73.96
-92.97
-105.64
-114.56
-121.48
-124.88
-121.64
-110.23
-92.87
-74.41
-58.57
-44.94
-29.21
-10.29
9.49
24.47
28.17
16.42
-10.12
-45.45
-80.93
-109.40
-133.47
-158.91
-189.61
-224.74
-260.31
-292.32
-318.65
-339.57
-356.93
-379.73
-414.40
-460.96
-513.05
-562.48
-603.58
-634.44
-656.11
-631.09
-541.35
-397.34
-233.40
-82.92
38.08
128.96
195.87
245.70
283.67
306.78
312.77
303.76
286.62
269.02
255.83
248.66
246.97
249.29
249.18
242.09
227.67
209.90
193.64
181.95
175.49
173.59
175.03
175.43
171.55
162.45
150.10
136.96
124.37
112.46
100.79
88.86
74.91
58.83
40.87
22.71
6.27
-7.17
-17.17
-23.87
-27.67
-29.68
-30.83
-31.73
-32.35
-32.50
-32.10
-31.20
-29.93
-28.42
-26.80
-25.06
-23.35
-21.67
-20.04
-18.48
-17.01
-15.60
-14.24
-12.94
-11.66
-10.50
-9.47
-8.58
-7.90
-7.42
-7.11
-6.87
-6.66
-6.46
-6.30
-6.21
-6.27
-6.54
-7.05
-8.12
-9.35
-10.63
-11.90
-13.19
-14.55
-16.12
-18.04
-20.32
-22.87
-25.46
-27.93
-30.18
-32.30
-34.47
-37.05
-40.33
-44.32
-48.65
-52.64
-55.62
-57.00
-57.05
-55.54
-52.75
-48.94
-44.02
-37.61
-28.93
-17.49
-3.41
12.30
27.92
41.44
51.26
56.71
58.20
57.24
55.28
53.43
51.73
49.52
45.73
39.46
29.98
16.67
-0.13
-19.12
-37.22
-50.04
-53.02
-43.72
-23.49
3.30
28.23
44.46
48.96
43.17
31.30
17.79
5.23
-6.08
-16.97
-28.13
-38.83
-47.71
-53.64
-56.36
-56.86
-56.47
-56.36
-56.50
-56.26
-53.70
-47.40
-37.01
-23.41
-8.75
4.52
14.16
18.85
18.16
12.61
3.20
-9.39
-23.85
-39.02
-53.68
-66.43
-75.73
-80.04
-78.03
-69.11
-53.56
-32.47
-7.65
18.86
44.15
66.51
84.89
98.78
108.14
113.26
114.69
113.02
108.99
103.27
96.66
89.74
82.87
76.27
70.03
64.21
58.78
53.60
48.62
43.93
39.58
35.55
31.87
28.55
25.56
22.79
20.18
17.67
15.35
13.67
12.36
11.34
10.62
10.14
9.81
9.50
9.21
8.97
8.88
8.98
9.39
10.19
11.30
12.58
13.73
14.68
15.37
15.81
16.32
16.65
16.52
15.46
13.04
8.88
3.20
-3.35
-9.66
-14.58
-17.25
-17.37
-15.47
-12.67
-10.24
-8.93
-8.77
-9.20
-9.30
-8.30
-6.02
-3.04
-0.40
1.07
1.39
1.29
2.09
5.26
11.75
22.05
36.29
53.98
72.41
88.59
97.83
95.54
79.66
52.29
19.50
-10.85
-32.28
-42.31
-42.42
-36.73
-29.23
-21.98
-14.87
-7.12
1.52
9.98
16.25
18.99
18.01
14.16
8.89
3.47
-1.79
-7.39
-13.87
-22.10
-31.97
-42.48
-52.21
-59.65
-63.88
-64.94
-63.62
-61.19
-58.93
-57.53
-56.98
-56.97
-56.83
-56.05
-54.53
-52.40
-49.89
-47.32
-45.45
-43.59
-41.48
-38.94
-35.97
-32.70
-29.32
-26.04
-22.95
-19.94
-16.67
-12.96
-8.57
-3.41
2.53
9.16
16.17
23.23
30.01
36.24
41.51
45.59
48.32
49.79
50.24
49.91
49.14
48.25
47.50
46.94
46.61
46.45
46.48
46.77
47.24
47.99
48.72
49.03
48.36
46.13
42.05
36.31
29.75
23.05
17.51
13.95
12.89
14.03
16.54
19.45
22.27
25.15
27.58
30.10
32.90
35.84
37.79
37.00
31.84
21.57
6.31
-15.62
-40.15
-64.68
-87.53
-108.71
-129.70
-152.74
-180.05
-213.07
-253.72
-299.19
-342.45
-373.86
-384.98
-371.85
-336.37
-285.64
-214.99
-133.40
-55.76
5.56
46.82
70.69
81.25
81.57
74.09
61.76
45.70
28.58
13.42
2.12
-5.50
-11.08
-16.18
-22.01
-26.88
-29.94
-29.16
-22.36
-8.27
12.62
38.44
67.05
94.74
119.18
138.42
152.16
161.00
165.68
166.53
163.48
156.53
146.39
134.49
122.10
110.34
99.85
90.53
81.85
72.89
62.66
53.54
45.17
37.84
31.71
26.32
20.68
13.75
4.75
-6.41
-18.39
-28.72
-34.95
-35.97
-32.44
-26.37
-20.00
-15.07
-12.08
-9.55
-4.23
7.12
26.17
52.52
84.45
120.66
161.77
203.63
236.18
253.16
253.24
240.73
223.06
206.73
194.38
184.03
170.48
148.20
114.85
72.72
28.34
-10.12
-36.36
-48.29
-50.41
-48.38
-47.06
-48.44
-52.43
-58.31
-66.05
-75.39
-87.01
-101.40
-117.50
-133.12
-145.11
-150.92
-149.87
-143.26
-133.67
-123.98
-116.29
-110.91
-107.31
-104.12
-100.17
-95.17
-89.73
-84.80
-81.01
-80.65
-81.59
-81.75
-79.07
-71.94
-59.98
-43.62
-23.87
-1.61
21.86
45.45
67.64
86.81
101.16
108.34
106.54
94.99
74.84
49.47
22.13
-4.52
-28.37
-48.41
-65.30
-79.84
-95.98
-111.40
-123.41
-129.73
-128.84
-120.38
-105.27
-86.42
-67.19
-51.11
-40.92
-39.50
-48.62
-67.83
-93.98
-114.20
-118.59
-102.71
-70.44
-31.62
1.75
21.45
25.94
19.35
8.51
-1.21
-7.13
-10.02
-9.61
-5.16
4.29
18.75
36.57
54.76
70.43
82.87
94.18
108.61
130.03
160.57
197.03
234.11
260.35
266.21
248.36
211.06
163.05
112.71
65.56
24.10
-10.61
-38.25
-58.54
-71.63
-78.20
-80.11
-79.80
-79.37
-80.28
-82.82
-86.64
-90.46
-93.09
-93.93
-93.40
-92.56
-92.52
-94.24
-97.91
-103.20
-108.98
-113.84
-116.54
-116.36
-113.34
-107.14
-97.63
-84.73
-68.41
-48.49
-24.87
2.26
31.32
60.55
88.03
111.76
130.03
141.85
147.33
147.65
144.73
140.55
136.72
133.87
131.51
128.56
124.16
118.07
110.94
103.92
97.97
93.78
91.61
91.60
93.66
96.95
99.09
96.22
84.18
60.60
26.74
-12.34
-49.45
-78.08
-94.75
-99.87
-96.59
-88.86
-79.89
-71.52
-64.77
-60.38
-58.75
-59.55
-61.32
-62.01
-59.79
-54.24
-46.39
-38.38
-32.57
-30.67
-33.29
-39.63
-47.00
-50.78
-45.34
-26.27
6.63
47.60
85.97
110.04
112.35
93.31
60.94
26.96
1.26
-12.15
-15.36
-13.61
-11.41
-10.17
-8.41
-4.12
3.10
11.40
17.80
20.02
18.12
14.39
12.03
13.82
20.47
30.33
40.24
46.71
47.54
42.57
33.48
22.84
12.85
4.29
-3.62
-12.39
-23.77
-38.30
-54.85
-71.04
-84.15
-92.35
-95.30
-94.59
-92.20
-90.32
-90.47
-93.27
-98.67
-105.86
-113.02
-117.18
-114.74
-102.63
-80.31
-50.45
-18.46
9.44
28.75
38.15
39.39
35.78
30.29
24.37
18.28
12.05
6.26
2.00
0.02
-0.08
0.10
-1.50
-6.27
-13.99
-22.67
-29.37
-31.40
-27.53
-18.33
-5.77
7.73
20.41
31.84
42.75
54.30
67.93
84.67
104.26
124.40
140.71
147.61
139.87
115.03
75.80
29.56
-13.27
-41.99
-49.91
-36.77
-8.82
23.97
51.77
68.72
73.95
70.77
64.10
57.74
53.64
52.27
53.92
58.94
67.44
77.58
85.29
85.44
74.10
51.52
22.48
-5.26
-24.40
-30.97
-25.80
-13.22
1.16
12.27
17.49
15.98
8.09
-5.38
-23.11
-42.91
-62.01
-77.56
-88.29
-93.83
-95.50
-95.62
-96.31
-98.60
-102.08
-105.63
-105.19
-101.71
-96.66
-92.16
-90.55
-93.78
-102.75
-116.65
-132.47
-144.93
-148.05
-136.36
-108.25
-67.43
-21.82
19.20
48.66
64.34
69.11
68.66
68.77
73.00
82.16
94.65
107.40
116.54
118.44
110.91
93.37
69.93
46.72
29.28
20.47
19.72
24.01
29.89
35.09
38.67
40.67
40.47
36.99
29.18
16.93
1.45
-15.17
-30.89
-44.27
-54.92
-63.28
-69.93
-75.21
-78.87
-80.39
-79.40
-75.97
-71.30
-67.97
-69.75
-80.14
-100.57
-128.60
-157.81
-179.45
-185.52
-172.19
-141.57
-100.80
-58.80
-22.75
4.41
24.23
40.02
55.70
74.88
100.59
135.34
180.66
235.63
295.52
351.73
394.10
414.81
411.30
387.45
351.64
313.04
277.88
247.66
219.83
190.18
155.53
115.05
70.15
23.29
-23.00
-66.82
-107.00
-142.93
-174.73
-203.19
-230.53
-260.06
-294.93
-336.15
-380.94
-422.60
-452.69
-464.41
-455.64
-429.93
-394.86
-358.69
-327.16
-301.99
-281.68
-263.49
-245.53
-227.53
-210.44
-195.25
-182.10
-170.04
-157.36
-142.08
-122.27
-96.68
-64.70
-26.37
18.00
67.86
122.66
181.78
244.22
308.55
373.33
437.72
501.63
564.92
625.95
680.53
722.08
743.52
740.16
712.12
664.86
607.23
548.09
493.41
445.30
402.84
364.22
328.04
293.81
261.40
229.88
197.09
160.10
116.77
66.52
10.71
-48.45
-108.37
-166.69
-221.70
-273.10
-322.35
-371.92
-424.59
-481.24
-540.77
-597.72
-642.34
-663.13
-651.16
-603.48
-523.37
-420.11
-305.32
-193.43
-97.25
-25.22
19.97
40.38
41.03
29.18
10.61
-10.09
-34.01
-64.01
-101.67
-145.29
-191.64
-237.85
-281.43
-322.11
-336.18
-305.39
-227.70
-120.26
-6.06
98.11
177.91
236.98
277.49
301.24
307.41
296.05
268.01
226.19
174.14
117.04
61.88
13.49
-24.94
-54.95
-79.65
-101.14
-117.86
-125.03
-116.73
-88.66
-43.58
9.37
56.05
84.30
90.16
79.67
63.80
50.68
40.89
27.56
3.99
-30.03
-65.56
-88.27
-86.46
-58.70
-14.96
28.87
58.76
69.77
66.83
59.91
57.55
62.40
69.69
70.14
55.42
22.20
-25.72
-79.33
-128.73
-166.27
-188.18
-194.34
-186.26
-165.93
-135.64
-99.75
-61.05
-24.02
6.95
29.30
42.90
49.61
52.01
52.18
51.60
51.05
50.33
48.78
45.30
38.78
28.59
15.34
0.67
-12.86
-22.63
-27.21
-26.57
-22.05
-15.77
-10.14
-6.68
-5.74
-6.44
-7.20
-6.70
-4.48
-1.10
2.17
3.57
2.15
-1.98
-7.48
-12.17
-13.99
-11.94
-6.45
1.16
8.97
15.99
22.47
30.12
41.75
60.61
89.81
129.45
180.06
236.17
290.26
332.06
350.81
339.10
296.54
230.52
154.31
82.45
25.23
-13.15
-34.45
-43.65
-45.93
-43.71
-41.00
-42.37
-51.86
-71.55
-99.10
-127.54
-147.92
-153.01
-140.80
-115.89
-87.21
-63.81
-51.69
-52.83
-63.87
-78.33
-89.02
-90.13
-78.09
-51.15
-9.27
44.86
102.70
151.48
178.03
175.44
147.14
105.04
63.35
32.40
15.13
7.93
5.06
2.48
-0.23
-0.92
2.49
10.00
19.48
27.77
32.12
32.20
29.98
28.86
31.68
39.85
50.61
59.34
61.15
52.66
33.26
4.78
-29.62
-66.74
-102.89
-135.07
-159.86
-173.54
-173.45
-159.22
-133.62
-101.91
-70.09
-43.13
-24.58
-15.94
-17.00
-26.29
-41.08
-57.29
-69.70
-73.98
-66.92
-49.01
-23.25
5.86
33.58
55.57
68.96
73.30
71.83
70.70
75.99
90.59
111.03
127.32
126.41
98.47
42.68
-31.20
-102.76
-151.68
-166.60
-149.57
-113.43
-74.54
-45.33
-30.31
-26.70
-28.38
-31.25
-35.04
-42.44
-56.05
-75.70
-98.14
-118.12
-131.05
-134.86
-131.63
-124.40
-116.48
-109.20
-101.50
-90.44
-72.45
-45.03
-7.88
36.00
81.44
122.77
155.40
177.03
187.72
189.78
186.59
181.39
176.48
173.19
171.84
172.17
172.84
170.96
162.51
143.33
110.93
66.55
16.04
-31.26
-65.44
-79.94
-74.49
-55.39
-33.12
-17.85
-15.42
-25.63
-43.33
-61.64
-75.39
-83.02
-85.88
-86.54
-86.71
-86.24
-84.34
-80.98
-78.01
-78.11
-82.59
-89.30
-92.99
-87.12
-67.41
-34.75
4.77
42.06
69.08
82.06
82.44
75.30
66.34
59.43
55.54
53.85
53.07
52.70
53.04
54.57
57.23
60.30
63.12
64.21
63.02
59.58
54.49
48.39
41.73
34.55
26.65
17.92
8.50
-0.85
-9.12
-15.32
-18.94
-20.08
-19.46
-18.12
-16.82
-15.98
-15.44
-14.80
-13.73
-12.16
-10.36
-8.72
-7.56
-6.72
-5.68
-3.71
-0.27
4.79
11.06
17.81
24.27
29.88
34.66
39.03
43.55
48.90
55.77
64.69
75.17
85.47
92.50
92.83
84.04
65.87
41.11
14.93
-6.80
-20.13
-24.16
-20.83
-13.17
-3.92
4.78
11.46
14.80
13.22
4.62
-12.39
-37.23
-66.76
-93.63
-111.05
-115.07
-105.78
-86.62
-63.37
-42.00
-27.12
-21.35
-25.98
-42.31
-71.09
-111.39
-153.86
-185.47
-195.55
-182.29
-152.27
-114.84
-77.50
-43.89
-14.63
11.02
32.87
49.27
58.43
60.41
57.60
53.80
53.01
57.92
68.91
83.85
98.19
107.46
109.41
104.49
95.22
84.66
74.95
66.33
57.37
44.54
24.63
-2.55
-35.47
-70.80
-103.58
-127.72
-140.20
-135.49
-112.31
-74.80
-31.76
5.28
25.90
24.46
2.01
-34.39
-71.45
-97.01
-105.04
-96.65
-77.67
-54.56
-31.69
-10.95
7.00
22.14
33.34
39.46
40.91
39.77
39.22
41.68
48.14
56.78
64.36
66.39
59.08
41.21
15.15
-13.27
-35.99
-45.69
-39.79
-21.27
2.24
22.07
32.31
31.91
24.18
14.20
5.76
-0.23
-5.00
-10.45
-17.42
-25.07
-31.62
-35.51
-36.16
-34.49
-32.02
-29.93
-28.46
-26.91
-24.13
-19.15
-11.49
-1.57
9.38
19.61
27.41
31.40
30.76
25.39
15.95
4.02
-8.60
-20.21
-29.65
-36.37
-40.49
-42.52
-43.13
-42.81
-41.30
-38.19
-32.89
-24.89
-13.92
-0.17
15.96
34.25
51.39
65.54
75.50
80.77
81.43
78.21
72.22
64.79
56.96
48.99
40.74
31.26
19.86
6.84
-5.92
-15.39
-18.74
-14.78
-4.72
8.64
21.74
32.00
38.43
41.64
42.90
43.03
42.02
39.25
34.44
27.83
20.24
12.49
4.94
-2.62
-10.61
-19.11
-27.55
-34.81
-40.08
-43.23
-44.98
-46.26
-47.47
-48.22
-47.45
-44.29
-38.68
-31.66
-24.79
-19.45
-16.13
-14.35
-13.24
-11.94
-10.20
-8.11
-5.98
-3.94
-1.87
0.53
3.57
7.45
12.35
18.37
25.49
33.30
41.07
47.75
52.36
54.22
53.04
49.05
42.83
35.10
26.71
18.49
11.07
4.93
0.15
-3.53
-6.43
-8.77
-10.43
-10.99
-10.18
-8.13
-5.61
-3.79
-3.75
-5.94
-9.86
-14.20
-17.35
-18.18
-16.37
-12.36
-7.09
-1.36
4.37
9.89
15.15
19.82
23.13
24.12
22.41
18.75
15.23
14.56
18.92
29.33
44.93
63.11
80.59
94.79
104.93
111.86
116.93
120.89
123.81
124.65
121.97
114.80
103.20
88.81
73.80
59.58
46.15
32.88
18.01
-0.38
-24.23
-55.17
-92.54
-133.74
-175.63
-215.63
-251.85
-278.91
-289.98
-282.26
-261.66
-237.16
-215.00
-196.06
-179.76
-158.02
-125.53
-81.15
-30.23
15.46
46.34
56.89
47.98
28.69
13.92
16.88
44.87
94.04
149.50
196.86
227.94
242.57
247.18
250.44
246.23
230.99
218.23
205.51
181.88
143.02
90.53
31.04
-26.42
-74.29
-107.00
-124.33
-133.47
-141.80
-155.26
-176.06
-201.22
-223.82
-236.32
-231.45
-206.01
-163.81
-105.94
-42.59
10.53
42.65
54.11
51.89
43.63
32.89
18.18
-1.74
-26.30
-51.56
-71.50
-81.05
-79.27
-68.41
-52.97
-38.43
-27.93
-22.52
-20.19
-16.90
-8.73
6.33
28.65
57.84
90.63
125.03
158.70
188.93
212.31
224.92
223.39
206.78
177.54
140.90
103.22
69.00
39.98
15.30
-7.17
-29.30
-51.42
-72.49
-90.89
-105.19
-115.15
-121.16
-123.52
-121.99
-115.82
-104.47
-88.51
-69.87
-51.32
-35.70
-24.79
-18.61
-15.61
-13.35
-9.63
-3.27
5.56
15.67
25.36
33.14
38.33
41.06
42.14
42.40
42.40
42.16
41.22
39.01
35.24
30.08
24.19
18.48
13.83
10.79
9.53
9.77
10.94
12.41
13.52
13.80
13.02
11.18
8.45
5.17
1.63
-1.87
-5.11
-7.94
-10.20
-11.76
-12.53
-12.69
-12.49
-12.36
-12.61
-13.37
-14.57
-15.86
-16.80
-16.93
-15.95
-13.73
-10.45
-6.52
-2.58
0.67
2.76
3.52
3.24
2.46
1.72
1.36
1.35
1.45
1.29
0.65
-0.46
-1.75
-2.83
-3.28
-2.86
-1.62
0.20
2.15
3.80
4.82
5.12
4.76
3.91
2.76
1.40
-0.11
-1.75
-3.44
-5.18
-6.95
-8.80
-10.73
-12.47
-13.60
-13.60
-12.17
-9.42
-6.01
-2.73
-0.27
1.12
1.72
2.01
2.41
2.98
3.54
3.75
3.57
3.12
2.73
2.69
3.07
3.73
4.41
4.84
4.88
4.55
3.96
3.24
2.48
1.69
0.88
0.04
-0.78
-1.54
-2.15
-2.59
-2.87
-3.00
-2.99
-2.84
-2.59
-2.24
-1.84
-1.35
-0.70
0.20
1.45
3.01
4.71
6.22
7.27
7.67
7.40
6.59
5.31
3.64
1.53
-1.01
-3.92
-6.89
-9.47
-11.14
-11.49
-10.40
-8.08
-5.08
-1.96
0.74
2.74
3.95
4.50
4.59
4.44
4.18
3.85
3.47
3.02
2.47
1.76
0.87
-0.11
-1.08
-1.83
-2.18
-1.99
-1.23
-0.02
1.38
2.55
3.18
3.03
2.11
0.60
-1.03
-2.41
-3.25
-3.48
-3.33
-3.15
-3.36
-4.11
-5.32
-6.62
-7.59
-7.90
-7.45
-6.43
-5.27
-4.41
-4.14
-4.57
-5.49
-6.54
-7.30
-7.41
-6.68
-5.15
-3.02
-0.65
1.54
3.25
4.38
5.04
5.56
6.31
7.55
9.28
11.16
12.62
13.14
12.46
10.66
8.28
5.98
4.30
3.45
3.34
3.61
3.90
3.93
3.49
2.48
0.91
-1.16
-3.54
-5.98
-8.18
-9.92
-11.05
-11.61
-11.67
-11.33
-10.66
-9.74
-8.66
-7.53
-6.55
-5.89
-5.73
-6.15
-7.08
-8.29
-9.40
-10.00
-9.76
-8.49
-6.29
-3.53
-0.71
1.65
3.18
3.74
3.47
2.70
1.81
1.13
0.78
0.71
0.73
0.64
0.39
0.02
-0.31
-0.48
-0.45
-0.21
0.24
0.89
1.72
2.65
3.49
4.03
4.16
3.99
3.84
4.02
4.68
5.71
6.77
7.54
7.90
7.98
8.07
8.33
8.61
8.65
8.07
6.71
4.62
2.01
-0.92
-3.95
-6.94
-9.63
-11.58
-12.30
-11.42
-8.90
-5.13
-0.91
2.90
5.51
6.54
5.99
4.23
1.79
-0.73
-2.84
-4.23
-4.70
-4.30
-3.24
-1.86
-0.52
0.48
1.03
1.17
1.10
1.04
1.12
1.30
1.60
1.97
2.50
3.22
4.10
4.92
5.41
5.35
4.71
3.75
2.78
2.14
1.89
1.95
2.06
1.97
1.60
1.01
0.36
-0.26
-0.75
-1.18
-1.64
-2.33
-3.36
-4.73
-6.28
-7.75
-8.84
-9.29
-8.92
-7.78
-6.08
-4.15
-2.38
-1.13
-0.58
-0.73
-1.38
-2.16
-2.75
-2.89
-2.53
-1.74
-0.72
0.37
1.30
1.94
2.26
2.29
2.17
2.02
1.97
2.02
2.14
2.22
2.19
2.01
1.70
1.37
1.09
0.87
0.67
0.41
-0.01
-0.65
-1.59
-2.81
-4.29
-5.94
-7.71
-9.38
-10.71
-11.47
-11.56
-11.13
-10.52
-10.03
-9.94
-10.34
-11.12
-12.18
-13.39
-14.67
-15.95
-17.05
-17.76
-17.94
-17.60
-16.82
-15.82
-14.67
-13.28
-11.52
-9.28
-6.61
-3.76
-1.00
1.45
3.52
5.29
6.89
8.38
9.76
10.99
11.97
12.66
13.00
12.93
12.51
11.84
11.04
10.36
10.07
10.33
11.29
13.02
15.46
18.51
21.93
25.34
28.27
30.25
30.94
30.29
28.58
26.34
24.22
22.71
22.03
21.99
22.22
22.30
21.97
21.20
20.03
18.60
16.96
15.17
13.26
11.25
9.15
7.01
4.77
2.31
-0.43
-3.51
-6.79
-9.89
-12.35
-13.77
-13.95
-13.05
-11.55
-10.03
-9.02
-8.82
-9.39
-10.47
-11.62
-12.40
-12.46
-11.64
-10.05
-8.07
-6.21
-4.82
-3.91
-3.06
-1.59
1.17
5.66
11.87
19.33
27.40
35.55
43.46
50.89
57.67
63.63
68.68
72.59
75.05
75.76
74.67
71.86
67.48
61.80
55.32
48.87
42.95
37.54
32.32
27.14
22.15
17.70
14.07
11.51
10.28
9.81
9.04
7.13
4.19
1.20
-0.87
-1.75
-1.66
-0.82
-0.43
-2.65
-10.06
-24.94
-48.85
-82.57
-126.03
-177.52
-225.86
-256.15
-257.28
-229.64
-183.72
-132.26
-84.55
-46.08
-18.75
-1.44
8.30
13.44
17.17
22.26
29.93
41.65
56.08
69.69
78.38
78.72
69.26
52.05
32.71
19.20
18.81
32.94
55.66
75.67
80.54
59.17
7.10
-71.47
-164.84
-250.84
-305.47
-315.39
-284.89
-229.84
-166.65
-105.46
-50.66
-3.99
33.36
58.63
71.65
74.35
72.76
75.36
89.49
117.93
154.22
188.10
208.37
208.55
189.33
157.90
123.40
92.53
67.24
45.81
26.13
6.85
-11.53
-26.84
-36.36
-38.18
-32.63
-23.45
-16.90
-19.04
-33.52
-58.79
-88.05
-111.52
-120.76
-112.74
-90.85
-62.70
-35.94
-15.37
-2.07
5.93
11.95
19.26
30.56
47.91
72.01
101.06
130.87
153.50
163.49
158.71
141.04
115.15
86.59
59.90
37.26
18.99
2.99
-12.77
-30.75
-52.64
-78.12
-104.02
-123.07
-130.09
-123.11
-104.30
-78.34
-50.97
-26.50
-6.36
9.90
22.74
31.78
35.42
32.21
22.41
8.19
-6.84
-17.66
-21.05
-16.54
-6.69
4.42
13.25
17.68
18.65
18.09
17.94
19.13
21.33
23.43
24.14
22.61
18.98
13.83
8.32
3.73
0.63
-1.57
-4.43
-10.32
-21.36
-35.72
-52.64
-71.09
-90.10
-109.03
-126.98
-141.50
-148.69
-143.88
-123.92
-89.88
-46.93
-3.10
33.64
58.15
69.61
70.64
65.50
58.07
50.27
43.22
37.52
34.02
33.77
37.36
43.87
50.14
51.35
42.54
22.10
-6.51
-35.16
-54.13
-56.87
-43.25
-19.76
3.90
19.57
24.48
21.42
15.99
12.81
12.96
14.29
13.43
8.37
-0.31
-9.93
-17.32
-20.19
-17.96
-12.22
-5.17
1.07
5.64
8.97
12.63
18.32
26.81
37.86
50.38
63.41
76.33
88.42
98.04
102.38
98.26
83.13
58.96
31.10
6.78
-8.19
-11.72
-6.04
3.81
13.18
19.15
21.02
19.11
13.95
5.46
-6.66
-22.10
-39.38
-56.05
-69.67
-78.53
-82.80
-83.70
-83.13
-82.64
-82.84
-83.02
-81.65
-77.27
-67.82
-54.63
-39.46
-24.09
-9.69
3.48
16.18
29.58
44.32
59.99
74.70
86.49
93.31
94.00
88.73
78.86
65.96
51.20
34.79
16.16
-4.92
-28.35
-53.63
-79.84
-105.58
-128.62
-145.62
-152.66
-146.35
-125.76
-93.88
-57.25
-23.81
-0.01
11.59
12.40
6.19
-3.01
-12.59
-21.97
-30.80
-38.05
-41.77
-39.38
-28.76
-9.07
18.99
52.47
85.70
111.67
124.25
120.42
101.89
74.80
44.96
17.51
-4.64
-20.12
-27.71
-25.61
-12.42
11.52
42.16
72.40
94.80
104.20
100.19
86.62
69.63
53.27
41.10
33.33
28.13
23.90
19.08
13.47
7.79
3.55
1.61
2.83
7.89
17.43
32.08
51.26
72.69
91.51
102.15
99.30
81.66
52.63
19.18
-10.92
-32.29
-43.29
-46.84
-47.38
-50.30
-59.08
-75.29
-98.98
-129.24
-164.13
-200.39
-235.82
-258.73
-261.63
-242.19
-204.98
-159.73
-117.95
-91.50
-80.87
-82.28
-88.92
-94.84
-96.29
-92.13
-85.58
-81.27
-83.46
-95.28
-114.80
-134.50
-146.02
-141.82
-117.75
-74.37
-17.44
45.68
106.69
149.70
160.28
133.21
75.66
1.81
-68.41
-131.56
-186.75
-232.13
-265.32
-283.43
-283.58
-265.45
-231.84
-187.41
-138.04
-86.87
-35.71
13.80
60.62
103.34
139.57
166.07
180.31
180.50
168.15
146.31
118.53
88.78
60.79
37.26
19.42
8.71
5.46
10.10
21.90
39.03
59.42
81.30
103.23
124.10
145.52
168.65
193.99
219.88
243.04
260.48
270.76
274.29
272.90
272.99
279.84
295.95
319.12
343.77
364.31
377.37
382.54
381.73
383.04
393.40
416.79
452.24
495.54
542.08
587.68
627.62
624.33
551.71
404.26
205.70
-3.82
-188.30
-328.60
-423.31
-482.28
-518.21
-533.23
-526.35
-493.41
-434.89
-358.42
-277.01
-204.74
-152.44
-124.59
-114.22
-115.52
-119.45
-120.03
-115.48
-106.28
-92.76
-73.85
-52.40
-28.56
-5.63
10.59
12.69
-3.86
-37.28
-79.61
-120.15
-150.26
-165.18
-166.47
-159.02
-147.83
-134.84
-117.55
-91.86
-55.11
-8.77
42.67
93.24
137.77
173.24
199.36
217.87
231.00
240.56
247.71
249.18
245.03
236.96
227.26
217.70
208.98
200.26
189.66
175.16
155.95
133.59
111.01
91.45
76.94
67.49
60.76
53.70
44.31
32.77
20.58
8.90
-1.99
-12.39
-22.52
-32.31
-41.01
-47.70
-51.98
-54.88
-58.48
-64.49
-73.04
-82.58
-91.76
-99.65
-106.03
-110.40
-112.99
-113.56
-111.21
-104.76
-94.08
-82.90
-75.43
-74.04
-76.13
-79.78
-83.06
-84.98
-85.04
-83.91
-87.49
-100.19
-122.24
-145.85
-168.00
-188.37
-208.91
-231.03
-255.89
-291.10
-340.75
-401.77
-458.30
-502.37
-531.00
-545.80
-549.06
-544.28
-545.04
-561.85
-597.21
-637.40
-677.28
-714.64
-748.32
-773.26
-726.79
-579.47
-350.13
-147.54
2.93
103.42
178.83
240.52
297.04
353.25
400.56
430.22
440.09
444.34
449.16
457.40
469.19
486.31
509.92
531.92
544.33
543.18
535.41
520.84
497.64
464.45
424.49
383.01
340.21
295.37
248.43
204.92
165.65
131.03
102.20
82.53
74.70
76.18
81.61
85.05
84.35
77.57
65.40
50.60
37.15
27.31
19.40
9.41
-6.51
-28.72
-54.98
-80.59
-100.51
-111.24
-112.47
-106.88
-98.33
-89.98
-83.30
-78.16
-73.90
-70.12
-66.94
-64.66
-63.34
-62.62
-62.22
-62.24
-63.03
-64.71
-66.68
-67.58
-66.10
-61.77
-55.39
-48.75
-43.48
-40.25
-38.47
-36.90
-34.77
-32.23
-30.04
-28.76
-27.97
-26.40
-22.77
-16.77
-9.47
-2.85
1.36
2.68
1.97
0.79
0.26
0.46
0.58
-0.19
-1.93
-3.73
-4.25
-2.62
1.06
5.75
9.93
12.37
12.53
10.73
7.98
5.57
4.50
5.12
6.88
8.49
8.54
6.06
0.86
-6.49
-14.90
-23.18
-30.42
-35.98
-39.67
-41.60
-42.19
-42.00
-41.51
-40.84
-39.64
-37.41
-33.93
-29.53
-24.97
-20.94
-17.59
-14.55
-11.25
-7.51
-3.80
-1.07
-0.25
-1.57
-4.24
-6.65
-7.25
-5.27
-1.07
4.11
8.91
12.48
14.92
17.18
20.42
25.00
30.21
34.52
36.42
35.42
32.30
28.98
27.56
29.41
33.91
38.85
41.41
39.81
34.17
26.37
19.26
15.49
16.62
21.79
28.68
34.24
36.23
33.52
25.62
12.38
-5.51
-25.59
-44.59
-58.55
-64.71
-63.05
-57.42
-55.01
-63.51
-87.36
-117.32
-139.14
-139.36
-114.84
-73.71
-28.45
11.52
42.76
66.93
87.96
107.58
124.91
137.51
143.96
144.78
142.25
139.53
139.25
142.89
149.36
156.14
160.17
159.84
155.00
146.85
137.36
128.63
122.46
119.12
117.69
116.67
115.09
111.99
106.35
97.82
87.16
75.93
65.04
53.84
39.76
24.93
8.79
-11.39
-37.48
-68.49
-100.85
-130.92
-156.91
-179.23
-199.31
-219.02
-241.78
-268.51
-296.10
-318.76
-331.56
-331.87
-318.48
-290.55
-249.09
-202.42
-162.23
-139.12
-138.88
-162.11
-204.20
-256.19
-307.48
-322.40
-280.84
-192.01
-87.01
7.78
83.04
141.57
189.32
230.45
265.58
289.10
296.20
286.30
264.52
237.63
210.54
184.89
159.64
132.62
100.76
62.67
20.25
-21.56
-58.05
-86.77
-106.77
-116.92
-115.07
-100.95
-75.97
-43.00
-6.23
28.64
56.08
73.13
80.53
81.64
79.06
73.77
66.01
56.56
46.98
39.38
35.51
35.96
39.52
43.41
44.72
41.89
35.82
28.93
23.95
22.56
24.78
28.82
32.29
32.81
29.28
22.39
13.95
6.31
1.56
1.37
5.75
13.59
21.77
25.99
22.49
10.09
-8.43
-26.98
-37.71
-35.72
-20.54
3.56
30.01
53.07
69.76
80.68
87.31
90.64
90.05
83.93
70.80
50.69
25.44
-1.82
-26.92
-47.48
-62.69
-73.37
-81.20
-87.89
-94.72
-102.36
-111.22
-121.06
-130.82
-137.59
-137.13
-125.48
-101.19
-66.86
-28.82
5.04
28.52
39.21
39.05
32.67
24.50
17.32
12.27
9.73
9.64
12.19
16.08
18.52
16.38
8.22
-4.21
-15.85
-21.03
-15.73
0.74
25.44
53.35
79.65
100.93
115.49
123.01
124.00
119.13
109.55
96.65
81.51
64.57
45.61
23.92
-1.10
-29.93
-61.82
-93.94
-121.41
-138.30
-139.75
-124.41
-96.29
-62.46
-31.60
-10.22
-0.22
0.99
-1.80
-4.53
-5.98
-7.52
-11.27
-18.45
-28.15
-37.75
-44.08
-44.67
-38.31
-24.91
-6.35
13.85
30.97
40.75
41.53
35.44
27.83
25.11
31.52
46.78
66.49
84.31
95.07
96.15
87.42
70.20
46.66
19.69
-6.80
-27.74
-39.05
-39.54
-31.69
-20.58
-11.85
-9.05
-12.63
-20.63
-30.34
-39.81
-48.32
-55.85
-62.27
-67.10
-69.77
-70.44
-70.28
-70.88
-73.80
-79.77
-88.18
-97.41
-105.40
-110.27
-110.77
-106.76
-98.29
-85.89
-70.07
-51.26
-29.85
-6.55
17.48
40.65
61.27
77.92
89.83
97.21
101.06
102.98
104.66
107.26
111.05
115.37
118.73
119.17
114.80
104.36
87.43
64.54
37.13
7.22
-22.67
-50.01
-72.62
-89.12
-99.03
-102.88
-102.08
-98.63
-94.68
-92.20
-92.63
-96.43
-103.33
-112.44
-122.51
-132.12
-140.10
-145.52
-147.98
-147.66
-144.80
-139.97
-133.93
-127.37
-120.76
-114.39
-108.51
-103.22
-98.63
-94.38
-90.12
-85.61
-80.56
-74.49
-66.63
-56.09
-41.50
-25.34
-8.65
7.89
23.91
39.38
54.62
70.05
85.87
102.25
118.86
135.62
152.50
169.97
189.12
211.28
237.25
266.54
297.75
328.33
356.21
380.63
402.65
424.27
446.70
468.57
485.55
492.44
484.02
456.83
409.91
345.17
267.29
183.78
104.67
41.60
6.50
5.71
36.29
85.51
134.79
166.35
169.68
144.68
92.23
22.96
-48.89
-111.18
-158.15
-190.31
-210.80
-221.88
-224.30
-217.30
-201.74
-182.18
-165.27
-157.38
-162.35
-180.89
-211.68
-253.20
-303.63
-357.65
-408.01
-445.89
-463.34
-456.26
-426.38
-380.71
-328.78
-281.92
-242.77
-210.87
-184.53
-161.91
-141.16
-119.92
-95.02
-62.88
-20.91
31.27
90.24
150.37
205.86
252.82
290.53
321.35
349.70
380.35
417.06
459.93
505.00
544.46
568.90
570.45
545.82
497.96
435.11
367.95
305.42
252.49
209.45
173.97
143.47
116.69
93.76
75.25
60.96
49.46
38.83
26.46
11.01
-7.12
-26.13
-43.78
-58.47
-69.76
-78.24
-84.63
-91.52
-100.45
-111.19
-122.00
-130.53
-135.06
-135.43
-132.96
-129.41
-130.72
-141.92
-165.79
-202.19
-248.71
-302.00
-358.98
-417.31
-474.33
-532.87
-595.03
-660.61
-726.53
-787.68
-838.73
-875.91
-897.62
-877.34
-799.52
-660.61
-473.17
-261.80
-52.89
134.17
289.77
405.58
490.14
547.64
580.69
591.78
584.62
564.10
535.01
501.81
467.59
435.72
404.24
371.18
335.57
297.79
259.23
221.22
184.62
149.68
117.57
86.23
54.05
20.34
-14.75
-50.48
-86.28
-122.36
-160.25
-201.53
-248.75
-301.82
-356.41
-404.32
-435.90
-444.16
-427.49
-390.57
-341.71
-289.90
-240.56
-194.33
-148.69
-101.27
-52.51
-5.71
34.97
67.14
91.16
109.19
123.43
135.04
144.88
154.09
164.82
179.10
197.06
216.00
231.12
237.74
233.34
218.88
197.95
175.15
154.40
137.99
126.55
118.80
112.00
102.44
86.83
63.71
34.38
2.05
-29.56
-57.96
-82.74
-105.05
-126.64
-149.18
-173.61
-200.08
-227.89
-255.54
-280.69
-301.07
-314.92
-321.40
-320.48
-312.36
-297.40
-276.65
-252.74
-229.71
-212.24
-203.58
-203.81
-209.91
-216.70
-219.32
-215.32
-205.18
-191.03
-174.90
-157.33
-137.93
-116.69
-94.91
-75.01
-59.00
-46.86
-36.38
-24.62
-10.03
5.84
18.62
23.25
16.32
-2.13
-28.62
-57.87
-84.65
-105.17
-117.59
-121.54
-117.51
-106.30
-88.56
-64.38
-33.91
2.38
43.33
86.70
129.69
169.39
203.53
231.13
252.61
269.70
285.18
302.48
324.92
354.37
389.89
426.93
457.73
473.18
465.64
431.74
374.28
301.86
226.83
161.92
116.80
95.89
98.16
118.79
151.75
191.99
235.75
279.42
318.25
346.18
358.00
352.39
333.72
310.89
293.50
287.54
293.01
304.98
316.64
322.65
320.73
311.14
295.03
273.57
247.85
219.31
190.22
162.65
137.40
113.30
87.91
59.56
28.98
-0.03
-21.81
-31.10
-25.40
-5.91
22.66
53.75
81.05
99.84
107.76
104.43
91.01
69.80
43.86
16.75
-8.27
-28.79
-43.87
-54.00
-60.61
-65.44
-70.13
-75.79
-82.61
-90.23
-97.67
-103.73
-107.66
-109.48
-110.32
-112.02
-116.59
-125.37
-138.83
-156.66
-178.39
-203.57
-231.59
-260.88
-288.36
-310.11
-322.70
-324.98
-318.61
-306.92
-293.11
-278.89
-264.46
-249.68
-235.53
-224.39
-219.30
-222.32
-232.59
-246.60
-259.76
-268.65
-272.51
-272.84
-271.59
-269.41
-264.60
-253.05
-230.58
-195.29
-149.31
-98.54
-50.28
-10.64
17.56
32.33
33.84
24.25
6.81
-14.70
-38.10
-61.43
-82.19
-98.05
-107.32
-109.27
-104.69
-95.50
-84.26
-73.63
-65.36
-59.75
-56.80
-56.51
-58.67
-62.88
-68.28
-73.51
-77.36
-78.22
-73.56
-62.13
-44.17
-20.89
6.20
36.18
68.86
103.73
140.82
181.89
227.42
276.35
326.64
376.22
423.92
469.63
513.24
556.46
604.11
658.93
719.61
779.91
830.25
861.26
867.38
848.03
791.44
698.13
577.66
445.97
319.44
209.23
120.05
58.80
18.97
-6.70
-22.30
-32.34
-42.00
-56.18
-79.38
-111.99
-151.37
-194.64
-237.63
-274.94
-303.29
-321.58
-330.24
-330.19
-322.02
-306.56
-286.47
-264.83
-244.62
-230.01
-225.16
-232.90
-253.53
-284.54
-321.34
-359.22
-393.41
-419.74
-436.10
-442.72
-442.11
-438.28
-435.18
-434.90
-436.68
-436.36
-428.40
-409.07
-378.70
-342.06
-306.26
-277.44
-258.02
-246.13
-236.78
-224.54
-205.74
-179.36
-146.46
-108.94
-68.48
-26.23
16.87
59.45
99.89
136.19
166.53
189.79
205.82
215.45
220.36
222.71
224.14
226.01
229.78
237.64
252.52
276.96
311.19
351.78
391.62
421.19
432.47
421.87
391.71
348.74
300.65
252.83
207.08
162.34
115.84
65.68
11.74
-44.26
-99.76
-152.41
-200.53
-242.60
-270.94
-277.91
-258.44
-213.58
-150.43
-79.08
-9.07
52.81
103.21
141.70
168.76
186.50
196.55
200.40
199.59
195.24
187.89
177.92
165.32
148.62
126.64
98.66
65.09
27.52
-11.69
-49.92
-84.30
-112.01
-132.08
-144.20
-148.80
-146.51
-137.95
-123.97
-105.92
-85.41
-64.07
-45.10
-31.29
-24.55
-25.33
-32.49
-43.84
-56.96
-69.55
-80.16
-90.05
-101.94
-119.12
-144.33
-179.38
-225.28
-282.84
-352.28
-418.58
-466.88
-485.55
-470.46
-424.95
-356.32
-272.79
-183.01
-95.54
-18.50
40.77
78.03
93.45
90.93
76.73
57.63
38.90
24.16
13.69
7.75
5.84
7.13
10.60
15.10
20.50
26.49
32.96
39.18
44.97
50.55
56.44
63.18
71.34
82.27
96.83
115.48
134.16
149.73
159.30
160.72
152.18
127.48
84.29
23.98
-41.28
-105.44
-164.52
-218.06
-264.43
-302.25
-330.76
-348.82
-356.15
-353.34
-342.90
-326.38
-304.92
-279.23
-250.32
-219.40
-187.16
-154.54
-122.75
-94.03
-69.60
-50.06
-35.41
-25.75
-21.16
-21.18
-25.28
-32.73
-43.09
-55.19
-67.48
-78.41
-87.06
-93.11
-96.46
-97.08
-94.67
-88.64
-77.73
-60.51
-35.96
-4.20
33.29
74.08
115.00
153.03
185.78
211.71
230.61
243.41
251.65
257.21
261.34
264.57
266.39
265.63
261.43
254.24
246.21
240.73
241.26
249.67
265.47
285.61
305.73
321.64
330.95
333.74
332.06
328.93
326.59
325.92
325.73
323.53
316.92
304.95
288.05
267.78
246.05
223.92
202.93
184.05
167.86
154.70
144.49
136.64
130.28
124.39
118.00
112.90
110.38
111.04
114.42
119.57
125.87
133.42
142.70
153.81
170.56
195.58
230.81
276.40
330.74
390.97
454.06
517.56
580.03
645.96
717.55
793.53
866.55
925.56
960.58
967.42
949.50
883.14
759.43
580.50
362.87
131.21
-89.37
-280.05
-430.44
-537.94
-606.19
-633.27
-628.21
-600.99
-563.30
-526.28
-498.64
-485.44
-488.23
-505.80
-531.47
-559.49
-584.34
-606.09
-628.77
-657.68
-696.09
-743.34
-794.61
-840.33
-872.68
-875.67
-841.06
-769.09
-667.97
-550.21
-428.10
-310.27
-200.29
-100.40
-11.83
62.17
118.32
155.50
176.27
184.56
184.72
180.55
172.86
160.38
139.04
104.86
56.24
-3.47
-68.51
-132.42
-188.84
-232.82
-259.91
-267.56
-255.48
-226.70
-186.88
-143.49
-105.57
-74.87
-51.25
-33.58
-21.44
-14.96
-14.29
-17.65
-21.14
-18.99
-4.56
26.11
72.94
131.24
192.66
244.69
276.50
281.68
260.73
221.69
176.90
139.45
118.79
117.65
128.01
138.25
136.25
114.48
73.14
18.47
-41.11
-98.78
-151.05
-196.30
-234.98
-265.90
-286.43
-294.12
-288.71
-272.52
-249.35
-223.22
-197.22
-172.31
-147.55
-121.20
-92.03
-60.43
-28.31
1.99
29.38
54.88
81.32
111.60
146.04
180.80
208.47
220.77
212.18
182.16
134.95
77.90
